Timestamp,ECG
25/05/2019 16:08:04.444,3435
25/05/2019 16:08:04.448,3407
25/05/2019 16:08:04.452,3391
25/05/2019 16:08:04.456,3439
25/05/2019 16:08:04.460,3407
25/05/2019 16:08:04.464,3371
25/05/2019 16:08:04.468,3355
25/05/2019 16:08:04.472,3407
25/05/2019 16:08:04.476,3407
25/05/2019 16:08:04.480,3383
25/05/2019 16:08:04.484,3359
25/05/2019 16:08:04.488,3375
25/05/2019 16:08:04.492,3379
25/05/2019 16:08:04.496,3351
25/05/2019 16:08:04.500,3347
25/05/2019 16:08:04.504,3363
25/05/2019 16:08:04.508,3387
25/05/2019 16:08:04.512,3367
25/05/2019 16:08:04.516,3355
25/05/2019 16:08:04.520,3383
25/05/2019 16:08:04.524,3451
25/05/2019 16:08:04.528,3419
25/05/2019 16:08:04.532,3375
25/05/2019 16:08:04.536,3347
25/05/2019 16:08:04.540,3407
25/05/2019 16:08:04.544,3379
25/05/2019 16:08:04.548,3351
25/05/2019 16:08:04.552,3351
25/05/2019 16:08:04.556,3411
25/05/2019 16:08:04.560,3407
25/05/2019 16:08:04.564,3375
25/05/2019 16:08:04.568,3335
25/05/2019 16:08:04.572,3387
25/05/2019 16:08:04.576,3395
25/05/2019 16:08:04.580,3355
25/05/2019 16:08:04.584,3327
25/05/2019 16:08:04.588,3375
25/05/2019 16:08:04.592,3387
25/05/2019 16:08:04.596,3355
25/05/2019 16:08:04.600,3327
25/05/2019 16:08:04.604,3355
25/05/2019 16:08:04.608,3383
25/05/2019 16:08:04.612,3331
25/05/2019 16:08:04.616,3315
25/05/2019 16:08:04.620,3343
25/05/2019 16:08:04.624,3387
25/05/2019 16:08:04.628,3367
25/05/2019 16:08:04.632,3335
25/05/2019 16:08:04.636,3311
25/05/2019 16:08:04.640,3335
25/05/2019 16:08:04.644,3291
25/05/2019 16:08:04.648,3267
25/05/2019 16:08:04.652,3263
25/05/2019 16:08:04.656,3343
25/05/2019 16:08:04.660,3363
25/05/2019 16:08:04.664,3343
25/05/2019 16:08:04.668,3311
25/05/2019 16:08:04.672,3355
25/05/2019 16:08:04.676,3371
25/05/2019 16:08:04.680,3347
25/05/2019 16:08:04.684,3327
25/05/2019 16:08:04.688,3367
25/05/2019 16:08:04.692,3367
25/05/2019 16:08:04.696,3303
25/05/2019 16:08:04.700,3259
25/05/2019 16:08:04.704,3271
25/05/2019 16:08:04.708,3311
25/05/2019 16:08:04.712,3291
25/05/2019 16:08:04.716,3271
25/05/2019 16:08:04.720,3283
25/05/2019 16:08:04.724,3323
25/05/2019 16:08:04.728,3275
25/05/2019 16:08:04.732,3243
25/05/2019 16:08:04.736,3239
25/05/2019 16:08:04.740,3299
25/05/2019 16:08:04.744,3275
25/05/2019 16:08:04.748,3247
25/05/2019 16:08:04.752,3231
25/05/2019 16:08:04.756,3295
25/05/2019 16:08:04.760,3279
25/05/2019 16:08:04.764,3255
25/05/2019 16:08:04.768,3231
25/05/2019 16:08:04.772,3291
25/05/2019 16:08:04.776,3279
25/05/2019 16:08:04.780,3247
25/05/2019 16:08:04.784,3215
25/05/2019 16:08:04.788,3259
25/05/2019 16:08:04.792,3283
25/05/2019 16:08:04.796,3235
25/05/2019 16:08:04.800,3195
25/05/2019 16:08:04.804,3231
25/05/2019 16:08:04.808,3271
25/05/2019 16:08:04.812,3219
25/05/2019 16:08:04.816,3203
25/05/2019 16:08:04.820,3227
25/05/2019 16:08:04.824,3287
25/05/2019 16:08:04.828,3279
25/05/2019 16:08:04.832,3263
25/05/2019 16:08:04.836,3263
25/05/2019 16:08:04.840,3323
25/05/2019 16:08:04.844,3295
25/05/2019 16:08:04.848,3275
25/05/2019 16:08:04.852,3255
25/05/2019 16:08:04.856,3319
25/05/2019 16:08:04.860,3303
25/05/2019 16:08:04.864,3267
25/05/2019 16:08:04.868,3247
25/05/2019 16:08:04.872,3299
25/05/2019 16:08:04.876,3323
25/05/2019 16:08:04.880,3307
25/05/2019 16:08:04.884,3291
25/05/2019 16:08:04.888,3327
25/05/2019 16:08:04.892,3339
25/05/2019 16:08:04.896,3295
25/05/2019 16:08:04.900,3255
25/05/2019 16:08:04.904,3275
25/05/2019 16:08:04.908,3303
25/05/2019 16:08:04.912,3267
25/05/2019 16:08:04.916,3243
25/05/2019 16:08:04.920,3255
25/05/2019 16:08:04.924,3295
25/05/2019 16:08:04.928,3255
25/05/2019 16:08:04.932,3223
25/05/2019 16:08:04.936,3231
25/05/2019 16:08:04.940,3295
25/05/2019 16:08:04.944,3263
25/05/2019 16:08:04.948,3227
25/05/2019 16:08:04.952,3211
25/05/2019 16:08:04.956,3255
25/05/2019 16:08:04.960,3231
25/05/2019 16:08:04.964,3215
25/05/2019 16:08:04.968,3211
25/05/2019 16:08:04.972,3275
25/05/2019 16:08:04.976,3275
25/05/2019 16:08:04.980,3255
25/05/2019 16:08:04.984,3235
25/05/2019 16:08:04.988,3299
25/05/2019 16:08:04.992,3299
25/05/2019 16:08:04.996,3231
25/05/2019 16:08:05.000,3199
25/05/2019 16:08:05.004,3239
25/05/2019 16:08:05.008,3275
25/05/2019 16:08:05.012,3239
25/05/2019 16:08:05.016,3211
25/05/2019 16:08:05.020,3239
25/05/2019 16:08:05.024,3299
25/05/2019 16:08:05.028,3255
25/05/2019 16:08:05.032,3219
25/05/2019 16:08:05.036,3235
25/05/2019 16:08:05.040,3299
25/05/2019 16:08:05.044,3263
25/05/2019 16:08:05.048,3223
25/05/2019 16:08:05.052,3211
25/05/2019 16:08:05.056,3239
25/05/2019 16:08:05.060,3195
25/05/2019 16:08:05.064,3115
25/05/2019 16:08:05.068,3015
25/05/2019 16:08:05.072,3051
25/05/2019 16:08:05.076,3059
25/05/2019 16:08:05.080,3059
25/05/2019 16:08:05.084,3119
25/05/2019 16:08:05.088,3335
25/05/2019 16:08:05.092,3611
25/05/2019 16:08:05.096,3683
25/05/2019 16:08:05.100,3515
25/05/2019 16:08:05.104,3387
25/05/2019 16:08:05.108,3291
25/05/2019 16:08:05.112,3183
25/05/2019 16:08:05.116,3135
25/05/2019 16:08:05.120,3159
25/05/2019 16:08:05.124,3207
25/05/2019 16:08:05.128,3179
25/05/2019 16:08:05.132,3163
25/05/2019 16:08:05.136,3187
25/05/2019 16:08:05.140,3239
25/05/2019 16:08:05.144,3187
25/05/2019 16:08:05.148,3163
25/05/2019 16:08:05.152,3151
25/05/2019 16:08:05.156,3223
25/05/2019 16:08:05.160,3195
25/05/2019 16:08:05.164,3151
25/05/2019 16:08:05.168,3119
25/05/2019 16:08:05.172,3179
25/05/2019 16:08:05.176,3179
25/05/2019 16:08:05.180,3123
25/05/2019 16:08:05.184,3099
25/05/2019 16:08:05.188,3167
25/05/2019 16:08:05.192,3171
25/05/2019 16:08:05.196,3151
25/05/2019 16:08:05.200,3143
25/05/2019 16:08:05.204,3195
25/05/2019 16:08:05.208,3223
25/05/2019 16:08:05.212,3187
25/05/2019 16:08:05.216,3163
25/05/2019 16:08:05.220,3195
25/05/2019 16:08:05.224,3255
25/05/2019 16:08:05.228,3223
25/05/2019 16:08:05.232,3179
25/05/2019 16:08:05.236,3159
25/05/2019 16:08:05.240,3195
25/05/2019 16:08:05.244,3155
25/05/2019 16:08:05.248,3123
25/05/2019 16:08:05.252,3111
25/05/2019 16:08:05.256,3183
25/05/2019 16:08:05.260,3167
25/05/2019 16:08:05.264,3131
25/05/2019 16:08:05.268,3119
25/05/2019 16:08:05.272,3199
25/05/2019 16:08:05.276,3191
25/05/2019 16:08:05.280,3143
25/05/2019 16:08:05.284,3103
25/05/2019 16:08:05.288,3159
25/05/2019 16:08:05.292,3179
25/05/2019 16:08:05.296,3175
25/05/2019 16:08:05.300,3159
25/05/2019 16:08:05.304,3211
25/05/2019 16:08:05.308,3219
25/05/2019 16:08:05.312,3187
25/05/2019 16:08:05.316,3187
25/05/2019 16:08:05.320,3215
25/05/2019 16:08:05.324,3235
25/05/2019 16:08:05.328,3199
25/05/2019 16:08:05.332,3147
25/05/2019 16:08:05.336,3151
25/05/2019 16:08:05.340,3211
25/05/2019 16:08:05.344,3187
25/05/2019 16:08:05.348,3155
25/05/2019 16:08:05.352,3147
25/05/2019 16:08:05.356,3191
25/05/2019 16:08:05.360,3171
25/05/2019 16:08:05.364,3163
25/05/2019 16:08:05.368,3123
25/05/2019 16:08:05.372,3183
25/05/2019 16:08:05.376,3155
25/05/2019 16:08:05.380,3035
25/05/2019 16:08:05.384,3007
25/05/2019 16:08:05.388,3111
25/05/2019 16:08:05.392,3143
25/05/2019 16:08:05.396,3131
25/05/2019 16:08:05.400,3099
25/05/2019 16:08:05.404,3143
25/05/2019 16:08:05.408,3155
25/05/2019 16:08:05.412,3143
25/05/2019 16:08:05.416,3135
25/05/2019 16:08:05.420,3183
25/05/2019 16:08:05.424,3223
25/05/2019 16:08:05.428,3171
25/05/2019 16:08:05.432,3131
25/05/2019 16:08:05.436,3143
25/05/2019 16:08:05.440,3199
25/05/2019 16:08:05.444,3171
25/05/2019 16:08:05.448,3147
25/05/2019 16:08:05.452,3143
25/05/2019 16:08:05.456,3199
25/05/2019 16:08:05.460,3159
25/05/2019 16:08:05.464,3135
25/05/2019 16:08:05.468,3123
25/05/2019 16:08:05.472,3195
25/05/2019 16:08:05.476,3171
25/05/2019 16:08:05.480,3123
25/05/2019 16:08:05.484,3087
25/05/2019 16:08:05.488,3143
25/05/2019 16:08:05.492,3139
25/05/2019 16:08:05.496,3079
25/05/2019 16:08:05.500,3039
25/05/2019 16:08:05.504,3099
25/05/2019 16:08:05.508,3135
25/05/2019 16:08:05.512,3111
25/05/2019 16:08:05.516,3083
25/05/2019 16:08:05.520,3127
25/05/2019 16:08:05.524,3179
25/05/2019 16:08:05.528,3155
25/05/2019 16:08:05.532,3127
25/05/2019 16:08:05.536,3143
25/05/2019 16:08:05.540,3187
25/05/2019 16:08:05.544,3127
25/05/2019 16:08:05.548,3103
25/05/2019 16:08:05.552,3111
25/05/2019 16:08:05.556,3179
25/05/2019 16:08:05.560,3147
25/05/2019 16:08:05.564,3111
25/05/2019 16:08:05.568,3079
25/05/2019 16:08:05.572,3147
25/05/2019 16:08:05.576,3135
25/05/2019 16:08:05.580,3111
25/05/2019 16:08:05.584,3091
25/05/2019 16:08:05.588,3155
25/05/2019 16:08:05.592,3143
25/05/2019 16:08:05.596,3111
25/05/2019 16:08:05.600,3083
25/05/2019 16:08:05.604,3147
25/05/2019 16:08:05.608,3151
25/05/2019 16:08:05.612,3115
25/05/2019 16:08:05.616,3083
25/05/2019 16:08:05.620,3131
25/05/2019 16:08:05.624,3147
25/05/2019 16:08:05.628,3095
25/05/2019 16:08:05.632,3063
25/05/2019 16:08:05.636,3091
25/05/2019 16:08:05.640,3143
25/05/2019 16:08:05.644,3099
25/05/2019 16:08:05.648,3067
25/05/2019 16:08:05.652,3083
25/05/2019 16:08:05.656,3147
25/05/2019 16:08:05.660,3111
25/05/2019 16:08:05.664,3083
25/05/2019 16:08:05.668,3059
25/05/2019 16:08:05.672,3111
25/05/2019 16:08:05.676,3067
25/05/2019 16:08:05.680,3035
25/05/2019 16:08:05.684,3007
25/05/2019 16:08:05.688,3067
25/05/2019 16:08:05.692,3067
25/05/2019 16:08:05.696,3051
25/05/2019 16:08:05.700,3039
25/05/2019 16:08:05.704,3099
25/05/2019 16:08:05.708,3123
25/05/2019 16:08:05.712,3087
25/05/2019 16:08:05.716,3039
25/05/2019 16:08:05.720,3091
25/05/2019 16:08:05.724,3107
25/05/2019 16:08:05.728,3087
25/05/2019 16:08:05.732,3059
25/05/2019 16:08:05.736,3083
25/05/2019 16:08:05.740,3135
25/05/2019 16:08:05.744,3099
25/05/2019 16:08:05.748,3059
25/05/2019 16:08:05.752,3063
25/05/2019 16:08:05.756,3111
25/05/2019 16:08:05.760,3075
25/05/2019 16:08:05.764,3039
25/05/2019 16:08:05.768,3027
25/05/2019 16:08:05.772,3095
25/05/2019 16:08:05.776,3071
25/05/2019 16:08:05.780,3051
25/05/2019 16:08:05.784,3031
25/05/2019 16:08:05.788,3087
25/05/2019 16:08:05.792,3087
25/05/2019 16:08:05.796,3063
25/05/2019 16:08:05.800,3039
25/05/2019 16:08:05.804,3099
25/05/2019 16:08:05.808,3111
25/05/2019 16:08:05.812,3067
25/05/2019 16:08:05.816,2991
25/05/2019 16:08:05.820,2971
25/05/2019 16:08:05.824,2919
25/05/2019 16:08:05.828,2839
25/05/2019 16:08:05.832,2815
25/05/2019 16:08:05.836,2891
25/05/2019 16:08:05.840,3055
25/05/2019 16:08:05.844,3219
25/05/2019 16:08:05.848,3427
25/05/2019 16:08:05.852,3523
25/05/2019 16:08:05.856,3467
25/05/2019 16:08:05.860,3251
25/05/2019 16:08:05.864,3099
25/05/2019 16:08:05.868,3015
25/05/2019 16:08:05.872,3039
25/05/2019 16:08:05.876,3007
25/05/2019 16:08:05.880,2983
25/05/2019 16:08:05.884,2975
25/05/2019 16:08:05.888,3043
25/05/2019 16:08:05.892,3019
25/05/2019 16:08:05.896,2999
25/05/2019 16:08:05.900,2975
25/05/2019 16:08:05.904,3043
25/05/2019 16:08:05.908,3047
25/05/2019 16:08:05.912,3003
25/05/2019 16:08:05.916,2975
25/05/2019 16:08:05.920,3027
25/05/2019 16:08:05.924,3035
25/05/2019 16:08:05.928,3003
25/05/2019 16:08:05.932,2971
25/05/2019 16:08:05.936,3011
25/05/2019 16:08:05.940,3043
25/05/2019 16:08:05.944,3031
25/05/2019 16:08:05.948,3007
25/05/2019 16:08:05.952,3023
25/05/2019 16:08:05.956,3071
25/05/2019 16:08:05.960,3031
25/05/2019 16:08:05.964,3015
25/05/2019 16:08:05.968,3023
25/05/2019 16:08:05.972,3075
25/05/2019 16:08:05.976,3051
25/05/2019 16:08:05.980,3015
25/05/2019 16:08:05.984,3007
25/05/2019 16:08:05.988,3071
25/05/2019 16:08:05.992,3059
25/05/2019 16:08:05.996,3019
25/05/2019 16:08:06.000,2979
25/05/2019 16:08:06.004,3035
25/05/2019 16:08:06.008,3031
25/05/2019 16:08:06.012,3003
25/05/2019 16:08:06.016,2983
25/05/2019 16:08:06.020,3031
25/05/2019 16:08:06.024,3055
25/05/2019 16:08:06.028,3007
25/05/2019 16:08:06.032,2967
25/05/2019 16:08:06.036,3019
25/05/2019 16:08:06.040,3047
25/05/2019 16:08:06.044,3019
25/05/2019 16:08:06.048,2991
25/05/2019 16:08:06.052,2991
25/05/2019 16:08:06.056,3039
25/05/2019 16:08:06.060,3011
25/05/2019 16:08:06.064,2995
25/05/2019 16:08:06.068,2999
25/05/2019 16:08:06.072,3051
25/05/2019 16:08:06.076,3011
25/05/2019 16:08:06.080,2999
25/05/2019 16:08:06.084,2999
25/05/2019 16:08:06.088,3071
25/05/2019 16:08:06.092,3039
25/05/2019 16:08:06.096,3011
25/05/2019 16:08:06.100,2983
25/05/2019 16:08:06.104,3023
25/05/2019 16:08:06.108,3023
25/05/2019 16:08:06.112,2999
25/05/2019 16:08:06.116,2979
25/05/2019 16:08:06.120,3035
25/05/2019 16:08:06.124,3055
25/05/2019 16:08:06.128,3015
25/05/2019 16:08:06.132,2963
25/05/2019 16:08:06.136,2987
25/05/2019 16:08:06.140,3007
25/05/2019 16:08:06.144,2979
25/05/2019 16:08:06.148,2959
25/05/2019 16:08:06.152,2991
25/05/2019 16:08:06.156,3027
25/05/2019 16:08:06.160,2983
25/05/2019 16:08:06.164,2959
25/05/2019 16:08:06.168,2967
25/05/2019 16:08:06.172,3019
25/05/2019 16:08:06.176,2999
25/05/2019 16:08:06.180,2983
25/05/2019 16:08:06.184,2971
25/05/2019 16:08:06.188,3031
25/05/2019 16:08:06.192,3007
25/05/2019 16:08:06.196,2979
25/05/2019 16:08:06.200,2963
25/05/2019 16:08:06.204,3023
25/05/2019 16:08:06.208,3007
25/05/2019 16:08:06.212,2967
25/05/2019 16:08:06.216,2943
25/05/2019 16:08:06.220,2991
25/05/2019 16:08:06.224,2975
25/05/2019 16:08:06.228,2915
25/05/2019 16:08:06.232,2883
25/05/2019 16:08:06.236,2927
25/05/2019 16:08:06.240,2955
25/05/2019 16:08:06.244,2931
25/05/2019 16:08:06.248,2911
25/05/2019 16:08:06.252,2943
25/05/2019 16:08:06.256,2979
25/05/2019 16:08:06.260,2967
25/05/2019 16:08:06.264,2959
25/05/2019 16:08:06.268,2987
25/05/2019 16:08:06.272,3027
25/05/2019 16:08:06.276,2995
25/05/2019 16:08:06.280,2963
25/05/2019 16:08:06.284,2939
25/05/2019 16:08:06.288,2999
25/05/2019 16:08:06.292,3003
25/05/2019 16:08:06.296,2999
25/05/2019 16:08:06.300,2983
25/05/2019 16:08:06.304,3035
25/05/2019 16:08:06.308,3023
25/05/2019 16:08:06.312,2991
25/05/2019 16:08:06.316,2955
25/05/2019 16:08:06.320,3011
25/05/2019 16:08:06.324,3007
25/05/2019 16:08:06.328,2967
25/05/2019 16:08:06.332,2935
25/05/2019 16:08:06.336,2983
25/05/2019 16:08:06.340,3007
25/05/2019 16:08:06.344,2987
25/05/2019 16:08:06.348,2955
25/05/2019 16:08:06.352,2967
25/05/2019 16:08:06.356,2979
25/05/2019 16:08:06.360,2927
25/05/2019 16:08:06.364,2895
25/05/2019 16:08:06.368,2923
25/05/2019 16:08:06.372,2967
25/05/2019 16:08:06.376,2943
25/05/2019 16:08:06.380,2911
25/05/2019 16:08:06.384,2903
25/05/2019 16:08:06.388,2943
25/05/2019 16:08:06.392,2919
25/05/2019 16:08:06.396,2911
25/05/2019 16:08:06.400,2919
25/05/2019 16:08:06.404,2979
25/05/2019 16:08:06.408,2971
25/05/2019 16:08:06.412,2939
25/05/2019 16:08:06.416,2911
25/05/2019 16:08:06.420,2951
25/05/2019 16:08:06.424,2959
25/05/2019 16:08:06.428,2935
25/05/2019 16:08:06.432,2915
25/05/2019 16:08:06.436,2963
25/05/2019 16:08:06.440,2979
25/05/2019 16:08:06.444,2923
25/05/2019 16:08:06.448,2923
25/05/2019 16:08:06.452,2951
25/05/2019 16:08:06.456,2963
25/05/2019 16:08:06.460,2911
25/05/2019 16:08:06.464,2883
25/05/2019 16:08:06.468,2931
25/05/2019 16:08:06.472,2987
25/05/2019 16:08:06.476,2939
25/05/2019 16:08:06.480,2907
25/05/2019 16:08:06.484,2907
25/05/2019 16:08:06.488,2963
25/05/2019 16:08:06.492,2919
25/05/2019 16:08:06.496,2863
25/05/2019 16:08:06.500,2903
25/05/2019 16:08:06.504,2959
25/05/2019 16:08:06.508,2891
25/05/2019 16:08:06.512,2799
25/05/2019 16:08:06.516,2707
25/05/2019 16:08:06.520,2707
25/05/2019 16:08:06.524,2707
25/05/2019 16:08:06.528,2723
25/05/2019 16:08:06.532,2815
25/05/2019 16:08:06.536,3027
25/05/2019 16:08:06.540,3211
25/05/2019 16:08:06.544,3367
25/05/2019 16:08:06.548,3287
25/05/2019 16:08:06.552,3183
25/05/2019 16:08:06.556,3099
25/05/2019 16:08:06.560,2975
25/05/2019 16:08:06.564,2883
25/05/2019 16:08:06.568,2867
25/05/2019 16:08:06.572,2887
25/05/2019 16:08:06.576,2879
25/05/2019 16:08:06.580,2827
25/05/2019 16:08:06.584,2871
25/05/2019 16:08:06.588,2923
25/05/2019 16:08:06.592,2903
25/05/2019 16:08:06.596,2871
25/05/2019 16:08:06.600,2843
25/05/2019 16:08:06.604,2919
25/05/2019 16:08:06.608,2903
25/05/2019 16:08:06.612,2883
25/05/2019 16:08:06.616,2867
25/05/2019 16:08:06.620,2919
25/05/2019 16:08:06.624,2907
25/05/2019 16:08:06.628,2875
25/05/2019 16:08:06.632,2863
25/05/2019 16:08:06.636,2903
25/05/2019 16:08:06.640,2907
25/05/2019 16:08:06.644,2891
25/05/2019 16:08:06.648,2875
25/05/2019 16:08:06.652,2907
25/05/2019 16:08:06.656,2915
25/05/2019 16:08:06.660,2887
25/05/2019 16:08:06.664,2863
25/05/2019 16:08:06.668,2875
25/05/2019 16:08:06.672,2915
25/05/2019 16:08:06.676,2895
25/05/2019 16:08:06.680,2871
25/05/2019 16:08:06.684,2863
25/05/2019 16:08:06.688,2923
25/05/2019 16:08:06.692,2883
25/05/2019 16:08:06.696,2855
25/05/2019 16:08:06.700,2855
25/05/2019 16:08:06.704,2907
25/05/2019 16:08:06.708,2891
25/05/2019 16:08:06.712,2867
25/05/2019 16:08:06.716,2859
25/05/2019 16:08:06.720,2911
25/05/2019 16:08:06.724,2919
25/05/2019 16:08:06.728,2919
25/05/2019 16:08:06.732,2903
25/05/2019 16:08:06.736,2939
25/05/2019 16:08:06.740,2939
25/05/2019 16:08:06.744,2915
25/05/2019 16:08:06.748,2887
25/05/2019 16:08:06.752,2911
25/05/2019 16:08:06.756,2919
25/05/2019 16:08:06.760,2887
25/05/2019 16:08:06.764,2859
25/05/2019 16:08:06.768,2883
25/05/2019 16:08:06.772,2927
25/05/2019 16:08:06.776,2899
25/05/2019 16:08:06.780,2871
25/05/2019 16:08:06.784,2871
25/05/2019 16:08:06.788,2915
25/05/2019 16:08:06.792,2895
25/05/2019 16:08:06.796,2875
25/05/2019 16:08:06.800,2867
25/05/2019 16:08:06.804,2923
25/05/2019 16:08:06.808,2883
25/05/2019 16:08:06.812,2859
25/05/2019 16:08:06.816,2851
25/05/2019 16:08:06.820,2903
25/05/2019 16:08:06.824,2891
25/05/2019 16:08:06.828,2867
25/05/2019 16:08:06.832,2839
25/05/2019 16:08:06.836,2891
25/05/2019 16:08:06.840,2895
25/05/2019 16:08:06.844,2875
25/05/2019 16:08:06.848,2887
25/05/2019 16:08:06.852,2955
25/05/2019 16:08:06.856,2959
25/05/2019 16:08:06.860,2923
25/05/2019 16:08:06.864,2875
25/05/2019 16:08:06.868,2887
25/05/2019 16:08:06.872,2903
25/05/2019 16:08:06.876,2855
25/05/2019 16:08:06.880,2819
25/05/2019 16:08:06.884,2827
25/05/2019 16:08:06.888,2875
25/05/2019 16:08:06.892,2835
25/05/2019 16:08:06.896,2807
25/05/2019 16:08:06.900,2811
25/05/2019 16:08:06.904,2867
25/05/2019 16:08:06.908,2851
25/05/2019 16:08:06.912,2827
25/05/2019 16:08:06.916,2799
25/05/2019 16:08:06.920,2839
25/05/2019 16:08:06.924,2827
25/05/2019 16:08:06.928,2823
25/05/2019 16:08:06.932,2819
25/05/2019 16:08:06.936,2907
25/05/2019 16:08:06.940,2923
25/05/2019 16:08:06.944,2871
25/05/2019 16:08:06.948,2831
25/05/2019 16:08:06.952,2871
25/05/2019 16:08:06.956,2883
25/05/2019 16:08:06.960,2851
25/05/2019 16:08:06.964,2843
25/05/2019 16:08:06.968,2859
25/05/2019 16:08:06.972,2891
25/05/2019 16:08:06.976,2879
25/05/2019 16:08:06.980,2843
25/05/2019 16:08:06.984,2815
25/05/2019 16:08:06.988,2871
25/05/2019 16:08:06.992,2847
25/05/2019 16:08:06.996,2835
25/05/2019 16:08:07.000,2867
25/05/2019 16:08:07.004,2943
25/05/2019 16:08:07.008,2899
25/05/2019 16:08:07.012,2855
25/05/2019 16:08:07.016,2871
25/05/2019 16:08:07.020,2951
25/05/2019 16:08:07.024,2867
25/05/2019 16:08:07.028,2739
25/05/2019 16:08:07.032,2687
25/05/2019 16:08:07.036,2735
25/05/2019 16:08:07.040,2763
25/05/2019 16:08:07.044,2763
25/05/2019 16:08:07.048,2771
25/05/2019 16:08:07.052,2791
25/05/2019 16:08:07.056,2779
25/05/2019 16:08:07.060,2775
25/05/2019 16:08:07.064,2735
25/05/2019 16:08:07.068,2759
25/05/2019 16:08:07.072,2807
25/05/2019 16:08:07.076,2807
25/05/2019 16:08:07.080,2791
25/05/2019 16:08:07.084,2803
25/05/2019 16:08:07.088,2851
25/05/2019 16:08:07.092,2823
25/05/2019 16:08:07.096,2791
25/05/2019 16:08:07.100,2803
25/05/2019 16:08:07.104,2871
25/05/2019 16:08:07.108,2839
25/05/2019 16:08:07.112,2795
25/05/2019 16:08:07.116,2763
25/05/2019 16:08:07.120,2831
25/05/2019 16:08:07.124,2835
25/05/2019 16:08:07.128,2827
25/05/2019 16:08:07.132,2799
25/05/2019 16:08:07.136,2855
25/05/2019 16:08:07.140,2867
25/05/2019 16:08:07.144,2859
25/05/2019 16:08:07.148,2831
25/05/2019 16:08:07.152,2891
25/05/2019 16:08:07.156,2895
25/05/2019 16:08:07.160,2855
25/05/2019 16:08:07.164,2823
25/05/2019 16:08:07.168,2863
25/05/2019 16:08:07.172,2891
25/05/2019 16:08:07.176,2847
25/05/2019 16:08:07.180,2803
25/05/2019 16:08:07.184,2803
25/05/2019 16:08:07.188,2847
25/05/2019 16:08:07.192,2835
25/05/2019 16:08:07.196,2803
25/05/2019 16:08:07.200,2803
25/05/2019 16:08:07.204,2863
25/05/2019 16:08:07.208,2843
25/05/2019 16:08:07.212,2803
25/05/2019 16:08:07.216,2775
25/05/2019 16:08:07.220,2819
25/05/2019 16:08:07.224,2819
25/05/2019 16:08:07.228,2807
25/05/2019 16:08:07.232,2735
25/05/2019 16:08:07.236,2743
25/05/2019 16:08:07.240,2655
25/05/2019 16:08:07.244,2559
25/05/2019 16:08:07.248,2531
25/05/2019 16:08:07.252,2599
25/05/2019 16:08:07.256,2675
25/05/2019 16:08:07.260,2767
25/05/2019 16:08:07.264,2935
25/05/2019 16:08:07.268,3195
25/05/2019 16:08:07.272,3219
25/05/2019 16:08:07.276,3031
25/05/2019 16:08:07.280,2887
25/05/2019 16:08:07.284,2815
25/05/2019 16:08:07.288,2783
25/05/2019 16:08:07.292,2715
25/05/2019 16:08:07.296,2691
25/05/2019 16:08:07.300,2723
25/05/2019 16:08:07.304,2799
25/05/2019 16:08:07.308,2791
25/05/2019 16:08:07.312,2767
25/05/2019 16:08:07.316,2775
25/05/2019 16:08:07.320,2847
25/05/2019 16:08:07.324,2819
25/05/2019 16:08:07.328,2771
25/05/2019 16:08:07.332,2751
25/05/2019 16:08:07.336,2799
25/05/2019 16:08:07.340,2783
25/05/2019 16:08:07.344,2767
25/05/2019 16:08:07.348,2735
25/05/2019 16:08:07.352,2803
25/05/2019 16:08:07.356,2839
25/05/2019 16:08:07.360,2803
25/05/2019 16:08:07.364,2759
25/05/2019 16:08:07.368,2803
25/05/2019 16:08:07.372,2827
25/05/2019 16:08:07.376,2807
25/05/2019 16:08:07.380,2775
25/05/2019 16:08:07.384,2783
25/05/2019 16:08:07.388,2823
25/05/2019 16:08:07.392,2795
25/05/2019 16:08:07.396,2759
25/05/2019 16:08:07.400,2751
25/05/2019 16:08:07.404,2803
25/05/2019 16:08:07.408,2767
25/05/2019 16:08:07.412,2735
25/05/2019 16:08:07.416,2735
25/05/2019 16:08:07.420,2799
25/05/2019 16:08:07.424,2783
25/05/2019 16:08:07.428,2771
25/05/2019 16:08:07.432,2767
25/05/2019 16:08:07.436,2839
25/05/2019 16:08:07.440,2811
25/05/2019 16:08:07.444,2775
25/05/2019 16:08:07.448,2759
25/05/2019 16:08:07.452,2811
25/05/2019 16:08:07.456,2803
25/05/2019 16:08:07.460,2771
25/05/2019 16:08:07.464,2731
25/05/2019 16:08:07.468,2787
25/05/2019 16:08:07.472,2815
25/05/2019 16:08:07.476,2783
25/05/2019 16:08:07.480,2759
25/05/2019 16:08:07.484,2795
25/05/2019 16:08:07.488,2807
25/05/2019 16:08:07.492,2751
25/05/2019 16:08:07.496,2727
25/05/2019 16:08:07.500,2775
25/05/2019 16:08:07.504,2839
25/05/2019 16:08:07.508,2795
25/05/2019 16:08:07.512,2759
25/05/2019 16:08:07.516,2751
25/05/2019 16:08:07.520,2823
25/05/2019 16:08:07.524,2791
25/05/2019 16:08:07.528,2743
25/05/2019 16:08:07.532,2707
25/05/2019 16:08:07.536,2791
25/05/2019 16:08:07.540,2775
25/05/2019 16:08:07.544,2743
25/05/2019 16:08:07.548,2715
25/05/2019 16:08:07.552,2787
25/05/2019 16:08:07.556,2775
25/05/2019 16:08:07.560,2747
25/05/2019 16:08:07.564,2711
25/05/2019 16:08:07.568,2779
25/05/2019 16:08:07.572,2815
25/05/2019 16:08:07.576,2771
25/05/2019 16:08:07.580,2731
25/05/2019 16:08:07.584,2783
25/05/2019 16:08:07.588,2815
25/05/2019 16:08:07.592,2755
25/05/2019 16:08:07.596,2703
25/05/2019 16:08:07.600,2743
25/05/2019 16:08:07.604,2815
25/05/2019 16:08:07.608,2771
25/05/2019 16:08:07.612,2735
25/05/2019 16:08:07.616,2735
25/05/2019 16:08:07.620,2799
25/05/2019 16:08:07.624,2763
25/05/2019 16:08:07.628,2739
25/05/2019 16:08:07.632,2715
25/05/2019 16:08:07.636,2791
25/05/2019 16:08:07.640,2759
25/05/2019 16:08:07.644,2723
25/05/2019 16:08:07.648,2679
25/05/2019 16:08:07.652,2763
25/05/2019 16:08:07.656,2747
25/05/2019 16:08:07.660,2715
25/05/2019 16:08:07.664,2695
25/05/2019 16:08:07.668,2783
25/05/2019 16:08:07.672,2783
25/05/2019 16:08:07.676,2735
25/05/2019 16:08:07.680,2703
25/05/2019 16:08:07.684,2759
25/05/2019 16:08:07.688,2791
25/05/2019 16:08:07.692,2751
25/05/2019 16:08:07.696,2739
25/05/2019 16:08:07.700,2771
25/05/2019 16:08:07.704,2839
25/05/2019 16:08:07.708,2847
25/05/2019 16:08:07.712,2783
25/05/2019 16:08:07.716,2739
25/05/2019 16:08:07.720,2823
25/05/2019 16:08:07.724,2751
25/05/2019 16:08:07.728,2687
25/05/2019 16:08:07.732,2647
25/05/2019 16:08:07.736,2727
25/05/2019 16:08:07.740,2667
25/05/2019 16:08:07.744,2619
25/05/2019 16:08:07.748,2603
25/05/2019 16:08:07.752,2707
25/05/2019 16:08:07.756,2715
25/05/2019 16:08:07.760,2703
25/05/2019 16:08:07.764,2679
25/05/2019 16:08:07.768,2767
25/05/2019 16:08:07.772,2779
25/05/2019 16:08:07.776,2735
25/05/2019 16:08:07.780,2703
25/05/2019 16:08:07.784,2763
25/05/2019 16:08:07.788,2779
25/05/2019 16:08:07.792,2711
25/05/2019 16:08:07.796,2671
25/05/2019 16:08:07.800,2719
25/05/2019 16:08:07.804,2767
25/05/2019 16:08:07.808,2719
25/05/2019 16:08:07.812,2691
25/05/2019 16:08:07.816,2707
25/05/2019 16:08:07.820,2783
25/05/2019 16:08:07.824,2743
25/05/2019 16:08:07.828,2707
25/05/2019 16:08:07.832,2707
25/05/2019 16:08:07.836,2783
25/05/2019 16:08:07.840,2739
25/05/2019 16:08:07.844,2687
25/05/2019 16:08:07.848,2643
25/05/2019 16:08:07.852,2727
25/05/2019 16:08:07.856,2707
25/05/2019 16:08:07.860,2663
25/05/2019 16:08:07.864,2659
25/05/2019 16:08:07.868,2755
25/05/2019 16:08:07.872,2763
25/05/2019 16:08:07.876,2691
25/05/2019 16:08:07.880,2651
25/05/2019 16:08:07.884,2707
25/05/2019 16:08:07.888,2727
25/05/2019 16:08:07.892,2671
25/05/2019 16:08:07.896,2627
25/05/2019 16:08:07.900,2699
25/05/2019 16:08:07.904,2743
25/05/2019 16:08:07.908,2699
25/05/2019 16:08:07.912,2675
25/05/2019 16:08:07.916,2699
25/05/2019 16:08:07.920,2771
25/05/2019 16:08:07.924,2715
25/05/2019 16:08:07.928,2679
25/05/2019 16:08:07.932,2663
25/05/2019 16:08:07.936,2763
25/05/2019 16:08:07.940,2739
25/05/2019 16:08:07.944,2663
25/05/2019 16:08:07.948,2555
25/05/2019 16:08:07.952,2579
25/05/2019 16:08:07.956,2491
25/05/2019 16:08:07.960,2427
25/05/2019 16:08:07.964,2383
25/05/2019 16:08:07.968,2515
25/05/2019 16:08:07.972,2667
25/05/2019 16:08:07.976,2863
25/05/2019 16:08:07.980,3103
25/05/2019 16:08:07.984,3227
25/05/2019 16:08:07.988,3103
25/05/2019 16:08:07.992,2887
25/05/2019 16:08:07.996,2731
25/05/2019 16:08:08.000,2727
25/05/2019 16:08:08.004,2755
25/05/2019 16:08:08.008,2703
25/05/2019 16:08:08.012,2655
25/05/2019 16:08:08.016,2675
25/05/2019 16:08:08.020,2743
25/05/2019 16:08:08.024,2699
25/05/2019 16:08:08.028,2659
25/05/2019 16:08:08.032,2655
25/05/2019 16:08:08.036,2743
25/05/2019 16:08:08.040,2695
25/05/2019 16:08:08.044,2659
25/05/2019 16:08:08.048,2639
25/05/2019 16:08:08.052,2747
25/05/2019 16:08:08.056,2723
25/05/2019 16:08:08.060,2679
25/05/2019 16:08:08.064,2631
25/05/2019 16:08:08.068,2735
25/05/2019 16:08:08.072,2723
25/05/2019 16:08:08.076,2671
25/05/2019 16:08:08.080,2619
25/05/2019 16:08:08.084,2703
25/05/2019 16:08:08.088,2727
25/05/2019 16:08:08.092,2663
25/05/2019 16:08:08.096,2619
25/05/2019 16:08:08.100,2683
25/05/2019 16:08:08.104,2751
25/05/2019 16:08:08.108,2703
25/05/2019 16:08:08.112,2655
25/05/2019 16:08:08.116,2683
25/05/2019 16:08:08.120,2771
25/05/2019 16:08:08.124,2719
25/05/2019 16:08:08.128,2675
25/05/2019 16:08:08.132,2667
25/05/2019 16:08:08.136,2735
25/05/2019 16:08:08.140,2667
25/05/2019 16:08:08.144,2627
25/05/2019 16:08:08.148,2611
25/05/2019 16:08:08.152,2731
25/05/2019 16:08:08.156,2715
25/05/2019 16:08:08.160,2671
25/05/2019 16:08:08.164,2631
25/05/2019 16:08:08.168,2723
25/05/2019 16:08:08.172,2707
25/05/2019 16:08:08.176,2655
25/05/2019 16:08:08.180,2611
25/05/2019 16:08:08.184,2695
25/05/2019 16:08:08.188,2719
25/05/2019 16:08:08.192,2663
25/05/2019 16:08:08.196,2611
25/05/2019 16:08:08.200,2679
25/05/2019 16:08:08.204,2727
25/05/2019 16:08:08.208,2679
25/05/2019 16:08:08.212,2635
25/05/2019 16:08:08.216,2671
25/05/2019 16:08:08.220,2751
25/05/2019 16:08:08.224,2703
25/05/2019 16:08:08.228,2667
25/05/2019 16:08:08.232,2667
25/05/2019 16:08:08.236,2759
25/05/2019 16:08:08.240,2719
25/05/2019 16:08:08.244,2663
25/05/2019 16:08:08.248,2639
25/05/2019 16:08:08.252,2735
25/05/2019 16:08:08.256,2699
25/05/2019 16:08:08.260,2647
25/05/2019 16:08:08.264,2599
25/05/2019 16:08:08.268,2699
25/05/2019 16:08:08.272,2691
25/05/2019 16:08:08.276,2643
25/05/2019 16:08:08.280,2595
25/05/2019 16:08:08.284,2675
25/05/2019 16:08:08.288,2687
25/05/2019 16:08:08.292,2635
25/05/2019 16:08:08.296,2587
25/05/2019 16:08:08.300,2655
25/05/2019 16:08:08.304,2707
25/05/2019 16:08:08.308,2651
25/05/2019 16:08:08.312,2599
25/05/2019 16:08:08.316,2639
25/05/2019 16:08:08.320,2719
25/05/2019 16:08:08.324,2675
25/05/2019 16:08:08.328,2639
25/05/2019 16:08:08.332,2639
25/05/2019 16:08:08.336,2719
25/05/2019 16:08:08.340,2679
25/05/2019 16:08:08.344,2639
25/05/2019 16:08:08.348,2607
25/05/2019 16:08:08.352,2695
25/05/2019 16:08:08.356,2663
25/05/2019 16:08:08.360,2623
25/05/2019 16:08:08.364,2595
25/05/2019 16:08:08.368,2699
25/05/2019 16:08:08.372,2691
25/05/2019 16:08:08.376,2659
25/05/2019 16:08:08.380,2623
25/05/2019 16:08:08.384,2707
25/05/2019 16:08:08.388,2711
25/05/2019 16:08:08.392,2667
25/05/2019 16:08:08.396,2631
25/05/2019 16:08:08.400,2683
25/05/2019 16:08:08.404,2703
25/05/2019 16:08:08.408,2643
25/05/2019 16:08:08.412,2607
25/05/2019 16:08:08.416,2651
25/05/2019 16:08:08.420,2715
25/05/2019 16:08:08.424,2655
25/05/2019 16:08:08.428,2607
25/05/2019 16:08:08.432,2615
25/05/2019 16:08:08.436,2687
25/05/2019 16:08:08.440,2643
25/05/2019 16:08:08.444,2603
25/05/2019 16:08:08.448,2591
25/05/2019 16:08:08.452,2671
25/05/2019 16:08:08.456,2639
25/05/2019 16:08:08.460,2611
25/05/2019 16:08:08.464,2587
25/05/2019 16:08:08.468,2663
25/05/2019 16:08:08.472,2643
25/05/2019 16:08:08.476,2607
25/05/2019 16:08:08.480,2575
25/05/2019 16:08:08.484,2651
25/05/2019 16:08:08.488,2659
25/05/2019 16:08:08.492,2619
25/05/2019 16:08:08.496,2591
25/05/2019 16:08:08.500,2647
25/05/2019 16:08:08.504,2671
25/05/2019 16:08:08.508,2639
25/05/2019 16:08:08.512,2623
25/05/2019 16:08:08.516,2663
25/05/2019 16:08:08.520,2695
25/05/2019 16:08:08.524,2659
25/05/2019 16:08:08.528,2631
25/05/2019 16:08:08.532,2635
25/05/2019 16:08:08.536,2675
25/05/2019 16:08:08.540,2643
25/05/2019 16:08:08.544,2607
25/05/2019 16:08:08.548,2595
25/05/2019 16:08:08.552,2643
25/05/2019 16:08:08.556,2631
25/05/2019 16:08:08.560,2615
25/05/2019 16:08:08.564,2607
25/05/2019 16:08:08.568,2659
25/05/2019 16:08:08.572,2639
25/05/2019 16:08:08.576,2615
25/05/2019 16:08:08.580,2599
25/05/2019 16:08:08.584,2643
25/05/2019 16:08:08.588,2643
25/05/2019 16:08:08.592,2603
25/05/2019 16:08:08.596,2571
25/05/2019 16:08:08.600,2627
25/05/2019 16:08:08.604,2655
25/05/2019 16:08:08.608,2631
25/05/2019 16:08:08.612,2607
25/05/2019 16:08:08.616,2639
25/05/2019 16:08:08.620,2671
25/05/2019 16:08:08.624,2639
25/05/2019 16:08:08.628,2607
25/05/2019 16:08:08.632,2615
25/05/2019 16:08:08.636,2667
25/05/2019 16:08:08.640,2627
25/05/2019 16:08:08.644,2607
25/05/2019 16:08:08.648,2607
25/05/2019 16:08:08.652,2667
25/05/2019 16:08:08.656,2631
25/05/2019 16:08:08.660,2603
25/05/2019 16:08:08.664,2579
25/05/2019 16:08:08.668,2659
25/05/2019 16:08:08.672,2643
25/05/2019 16:08:08.676,2611
25/05/2019 16:08:08.680,2595
25/05/2019 16:08:08.684,2663
25/05/2019 16:08:08.688,2603
25/05/2019 16:08:08.692,2495
25/05/2019 16:08:08.696,2363
25/05/2019 16:08:08.700,2375
25/05/2019 16:08:08.704,2359
25/05/2019 16:08:08.708,2319
25/05/2019 16:08:08.712,2391
25/05/2019 16:08:08.716,2663
25/05/2019 16:08:08.720,3011
25/05/2019 16:08:08.724,3187
25/05/2019 16:08:08.728,3075
25/05/2019 16:08:08.732,2915
25/05/2019 16:08:08.736,2827
25/05/2019 16:08:08.740,2687
25/05/2019 16:08:08.744,2607
25/05/2019 16:08:08.748,2591
25/05/2019 16:08:08.752,2667
25/05/2019 16:08:08.756,2607
25/05/2019 16:08:08.760,2559
25/05/2019 16:08:08.764,2535
25/05/2019 16:08:08.768,2631
25/05/2019 16:08:08.772,2607
25/05/2019 16:08:08.776,2555
25/05/2019 16:08:08.780,2519
25/05/2019 16:08:08.784,2615
25/05/2019 16:08:08.788,2607
25/05/2019 16:08:08.792,2567
25/05/2019 16:08:08.796,2531
25/05/2019 16:08:08.800,2623
25/05/2019 16:08:08.804,2643
25/05/2019 16:08:08.808,2583
25/05/2019 16:08:08.812,2531
25/05/2019 16:08:08.816,2591
25/05/2019 16:08:08.820,2635
25/05/2019 16:08:08.824,2587
25/05/2019 16:08:08.828,2535
25/05/2019 16:08:08.832,2559
25/05/2019 16:08:08.836,2647
25/05/2019 16:08:08.840,2603
25/05/2019 16:08:08.844,2567
25/05/2019 16:08:08.848,2575
25/05/2019 16:08:08.852,2663
25/05/2019 16:08:08.856,2599
25/05/2019 16:08:08.860,2551
25/05/2019 16:08:08.864,2527
25/05/2019 16:08:08.868,2639
25/05/2019 16:08:08.872,2603
25/05/2019 16:08:08.876,2559
25/05/2019 16:08:08.880,2527
25/05/2019 16:08:08.884,2647
25/05/2019 16:08:08.888,2643
25/05/2019 16:08:08.892,2599
25/05/2019 16:08:08.896,2547
25/05/2019 16:08:08.900,2635
25/05/2019 16:08:08.904,2635
25/05/2019 16:08:08.908,2567
25/05/2019 16:08:08.912,2507
25/05/2019 16:08:08.916,2587
25/05/2019 16:08:08.920,2635
25/05/2019 16:08:08.924,2563
25/05/2019 16:08:08.928,2495
25/05/2019 16:08:08.932,2571
25/05/2019 16:08:08.936,2687
25/05/2019 16:08:08.940,2639
25/05/2019 16:08:08.944,2587
25/05/2019 16:08:08.948,2587
25/05/2019 16:08:08.952,2691
25/05/2019 16:08:08.956,2619
25/05/2019 16:08:08.960,2571
25/05/2019 16:08:08.964,2559
25/05/2019 16:08:08.968,2695
25/05/2019 16:08:08.972,2639
25/05/2019 16:08:08.976,2579
25/05/2019 16:08:08.980,2531
25/05/2019 16:08:08.984,2671
25/05/2019 16:08:08.988,2639
25/05/2019 16:08:08.992,2571
25/05/2019 16:08:08.996,2511
25/05/2019 16:08:09.000,2639
25/05/2019 16:08:09.004,2663
25/05/2019 16:08:09.008,2599
25/05/2019 16:08:09.012,2531
25/05/2019 16:08:09.016,2635
25/05/2019 16:08:09.020,2679
25/05/2019 16:08:09.024,2591
25/05/2019 16:08:09.028,2519
25/05/2019 16:08:09.032,2571
25/05/2019 16:08:09.036,2663
25/05/2019 16:08:09.040,2583
25/05/2019 16:08:09.044,2519
25/05/2019 16:08:09.048,2539
25/05/2019 16:08:09.052,2667
25/05/2019 16:08:09.056,2579
25/05/2019 16:08:09.060,2507
25/05/2019 16:08:09.064,2499
25/05/2019 16:08:09.068,2663
25/05/2019 16:08:09.072,2615
25/05/2019 16:08:09.076,2555
25/05/2019 16:08:09.080,2519
25/05/2019 16:08:09.084,2675
25/05/2019 16:08:09.088,2631
25/05/2019 16:08:09.092,2535
25/05/2019 16:08:09.096,2455
25/05/2019 16:08:09.100,2599
25/05/2019 16:08:09.104,2607
25/05/2019 16:08:09.108,2575
25/05/2019 16:08:09.112,2551
25/05/2019 16:08:09.116,2671
25/05/2019 16:08:09.120,2711
25/05/2019 16:08:09.124,2603
25/05/2019 16:08:09.128,2499
25/05/2019 16:08:09.132,2547
25/05/2019 16:08:09.136,2647
25/05/2019 16:08:09.140,2571
25/05/2019 16:08:09.144,2503
25/05/2019 16:08:09.148,2539
25/05/2019 16:08:09.152,2663
25/05/2019 16:08:09.156,2571
25/05/2019 16:08:09.160,2495
25/05/2019 16:08:09.164,2479
25/05/2019 16:08:09.168,2619
25/05/2019 16:08:09.172,2535
25/05/2019 16:08:09.176,2467
25/05/2019 16:08:09.180,2415
25/05/2019 16:08:09.184,2567
25/05/2019 16:08:09.188,2531
25/05/2019 16:08:09.192,2479
25/05/2019 16:08:09.196,2431
25/05/2019 16:08:09.200,2583
25/05/2019 16:08:09.204,2587
25/05/2019 16:08:09.208,2519
25/05/2019 16:08:09.212,2451
25/05/2019 16:08:09.216,2579
25/05/2019 16:08:09.220,2631
25/05/2019 16:08:09.224,2583
25/05/2019 16:08:09.228,2527
25/05/2019 16:08:09.232,2619
25/05/2019 16:08:09.236,2715
25/05/2019 16:08:09.240,2611
25/05/2019 16:08:09.244,2539
25/05/2019 16:08:09.248,2571
25/05/2019 16:08:09.252,2687
25/05/2019 16:08:09.256,2599
25/05/2019 16:08:09.260,2507
25/05/2019 16:08:09.264,2483
25/05/2019 16:08:09.268,2611
25/05/2019 16:08:09.272,2547
25/05/2019 16:08:09.276,2495
25/05/2019 16:08:09.280,2459
25/05/2019 16:08:09.284,2619
25/05/2019 16:08:09.288,2595
25/05/2019 16:08:09.292,2539
25/05/2019 16:08:09.296,2479
25/05/2019 16:08:09.300,2579
25/05/2019 16:08:09.304,2531
25/05/2019 16:08:09.308,2407
25/05/2019 16:08:09.312,2327
25/05/2019 16:08:09.316,2451
25/05/2019 16:08:09.320,2559
25/05/2019 16:08:09.324,2543
25/05/2019 16:08:09.328,2499
25/05/2019 16:08:09.332,2563
25/05/2019 16:08:09.336,2643
25/05/2019 16:08:09.340,2559
25/05/2019 16:08:09.344,2483
25/05/2019 16:08:09.348,2519
25/05/2019 16:08:09.352,2643
25/05/2019 16:08:09.356,2575
25/05/2019 16:08:09.360,2507
25/05/2019 16:08:09.364,2491
25/05/2019 16:08:09.368,2651
25/05/2019 16:08:09.372,2587
25/05/2019 16:08:09.376,2507
25/05/2019 16:08:09.380,2463
25/05/2019 16:08:09.384,2635
25/05/2019 16:08:09.388,2599
25/05/2019 16:08:09.392,2523
25/05/2019 16:08:09.396,2447
25/05/2019 16:08:09.400,2607
25/05/2019 16:08:09.404,2619
25/05/2019 16:08:09.408,2531
25/05/2019 16:08:09.412,2439
25/05/2019 16:08:09.416,2571
25/05/2019 16:08:09.420,2635
25/05/2019 16:08:09.424,2539
25/05/2019 16:08:09.428,2431
25/05/2019 16:08:09.432,2523
25/05/2019 16:08:09.436,2651
25/05/2019 16:08:09.440,2547
25/05/2019 16:08:09.444,2395
25/05/2019 16:08:09.448,2359
25/05/2019 16:08:09.452,2419
25/05/2019 16:08:09.456,2291
25/05/2019 16:08:09.460,2191
25/05/2019 16:08:09.464,2199
25/05/2019 16:08:09.468,2475
25/05/2019 16:08:09.472,2591
25/05/2019 16:08:09.476,2795
25/05/2019 16:08:09.480,2959
25/05/2019 16:08:09.484,3083
25/05/2019 16:08:09.488,2839
25/05/2019 16:08:09.492,2591
25/05/2019 16:08:09.496,2415
25/05/2019 16:08:09.500,2579
25/05/2019 16:08:09.504,2575
25/05/2019 16:08:09.508,2483
25/05/2019 16:08:09.512,2359
25/05/2019 16:08:09.516,2543
25/05/2019 16:08:09.520,2619
25/05/2019 16:08:09.524,2515
25/05/2019 16:08:09.528,2391
25/05/2019 16:08:09.532,2511
25/05/2019 16:08:09.536,2643
25/05/2019 16:08:09.540,2531
25/05/2019 16:08:09.544,2399
25/05/2019 16:08:09.548,2451
25/05/2019 16:08:09.552,2647
25/05/2019 16:08:09.556,2535
25/05/2019 16:08:09.560,2407
25/05/2019 16:08:09.564,2387
25/05/2019 16:08:09.568,2635
25/05/2019 16:08:09.572,2547
25/05/2019 16:08:09.576,2431
25/05/2019 16:08:09.580,2355
25/05/2019 16:08:09.584,2631
25/05/2019 16:08:09.588,2591
25/05/2019 16:08:09.592,2499
25/05/2019 16:08:09.596,2379
25/05/2019 16:08:09.600,2655
25/05/2019 16:08:09.604,2679
25/05/2019 16:08:09.608,2563
25/05/2019 16:08:09.612,2427
25/05/2019 16:08:09.616,2675
25/05/2019 16:08:09.620,2767
25/05/2019 16:08:09.624,2595
25/05/2019 16:08:09.628,2379
25/05/2019 16:08:09.632,2519
25/05/2019 16:08:09.636,2699
25/05/2019 16:08:09.640,2587
25/05/2019 16:08:09.644,2419
25/05/2019 16:08:09.648,2499
25/05/2019 16:08:09.652,2747
25/05/2019 16:08:09.656,2599
25/05/2019 16:08:09.660,2507
25/05/2019 16:08:09.664,2523
25/05/2019 16:08:09.668,2803
25/05/2019 16:08:09.672,2687
25/05/2019 16:08:09.676,2523
25/05/2019 16:08:09.680,2423
25/05/2019 16:08:09.684,2767
25/05/2019 16:08:09.688,2759
25/05/2019 16:08:09.692,2607
25/05/2019 16:08:09.696,2363
25/05/2019 16:08:09.700,2547
25/05/2019 16:08:09.704,2551
25/05/2019 16:08:09.708,2423
25/05/2019 16:08:09.712,2263
25/05/2019 16:08:09.716,2507
25/05/2019 16:08:09.720,2631
25/05/2019 16:08:09.724,2527
25/05/2019 16:08:09.728,2463
25/05/2019 16:08:09.732,2707
25/05/2019 16:08:09.736,2875
25/05/2019 16:08:09.740,2759
25/05/2019 16:08:09.744,2587
25/05/2019 16:08:09.748,2607
25/05/2019 16:08:09.752,2771
25/05/2019 16:08:09.756,2635
25/05/2019 16:08:09.760,2427
25/05/2019 16:08:09.764,2355
25/05/2019 16:08:09.768,2631
25/05/2019 16:08:09.772,2567
25/05/2019 16:08:09.776,2423
25/05/2019 16:08:09.780,2339
25/05/2019 16:08:09.784,2631
25/05/2019 16:08:09.788,2623
25/05/2019 16:08:09.792,2499
25/05/2019 16:08:09.796,2315
25/05/2019 16:08:09.800,2555
25/05/2019 16:08:09.804,2579
25/05/2019 16:08:09.808,2443
25/05/2019 16:08:09.812,2231
25/05/2019 16:08:09.816,2423
25/05/2019 16:08:09.820,2535
25/05/2019 16:08:09.824,2403
25/05/2019 16:08:09.828,2195
25/05/2019 16:08:09.832,2327
25/05/2019 16:08:09.836,2551
25/05/2019 16:08:09.840,2447
25/05/2019 16:08:09.844,2263
25/05/2019 16:08:09.848,2319
25/05/2019 16:08:09.852,2599
25/05/2019 16:08:09.856,2511
25/05/2019 16:08:09.860,2335
25/05/2019 16:08:09.864,2267
25/05/2019 16:08:09.868,2559
25/05/2019 16:08:09.872,2491
25/05/2019 16:08:09.876,2343
25/05/2019 16:08:09.880,2231
25/05/2019 16:08:09.884,2555
25/05/2019 16:08:09.888,2551
25/05/2019 16:08:09.892,2427
25/05/2019 16:08:09.896,2255
25/05/2019 16:08:09.900,2539
25/05/2019 16:08:09.904,2603
25/05/2019 16:08:09.908,2475
25/05/2019 16:08:09.912,2275
25/05/2019 16:08:09.916,2495
25/05/2019 16:08:09.920,2583
25/05/2019 16:08:09.924,2459
25/05/2019 16:08:09.928,2275
25/05/2019 16:08:09.932,2439
25/05/2019 16:08:09.936,2631
25/05/2019 16:08:09.940,2527
25/05/2019 16:08:09.944,2343
25/05/2019 16:08:09.948,2407
25/05/2019 16:08:09.952,2655
25/05/2019 16:08:09.956,2551
25/05/2019 16:08:09.960,2391
25/05/2019 16:08:09.964,2367
25/05/2019 16:08:09.968,2647
25/05/2019 16:08:09.972,2567
25/05/2019 16:08:09.976,2423
25/05/2019 16:08:09.980,2331
25/05/2019 16:08:09.984,2635
25/05/2019 16:08:09.988,2591
25/05/2019 16:08:09.992,2459
25/05/2019 16:08:09.996,2299
25/05/2019 16:08:10.000,2599
25/05/2019 16:08:10.004,2611
25/05/2019 16:08:10.008,2479
25/05/2019 16:08:10.012,2287
25/05/2019 16:08:10.016,2555
25/05/2019 16:08:10.020,2643
25/05/2019 16:08:10.024,2503
25/05/2019 16:08:10.028,2271
25/05/2019 16:08:10.032,2467
25/05/2019 16:08:10.036,2647
25/05/2019 16:08:10.040,2503
25/05/2019 16:08:10.044,2291
25/05/2019 16:08:10.048,2387
25/05/2019 16:08:10.052,2655
25/05/2019 16:08:10.056,2527
25/05/2019 16:08:10.060,2339
25/05/2019 16:08:10.064,2331
25/05/2019 16:08:10.068,2631
25/05/2019 16:08:10.072,2519
25/05/2019 16:08:10.076,2347
25/05/2019 16:08:10.080,2259
25/05/2019 16:08:10.084,2627
25/05/2019 16:08:10.088,2575
25/05/2019 16:08:10.092,2419
25/05/2019 16:08:10.096,2259
25/05/2019 16:08:10.100,2607
25/05/2019 16:08:10.104,2611
25/05/2019 16:08:10.108,2455
25/05/2019 16:08:10.112,2247
25/05/2019 16:08:10.116,2543
25/05/2019 16:08:10.120,2607
25/05/2019 16:08:10.124,2439
25/05/2019 16:08:10.128,2239
25/05/2019 16:08:10.132,2503
25/05/2019 16:08:10.136,2691
25/05/2019 16:08:10.140,2535
25/05/2019 16:08:10.144,2303
25/05/2019 16:08:10.148,2427
25/05/2019 16:08:10.152,2671
25/05/2019 16:08:10.156,2535
25/05/2019 16:08:10.160,2363
25/05/2019 16:08:10.164,2387
25/05/2019 16:08:10.168,2679
25/05/2019 16:08:10.172,2559
25/05/2019 16:08:10.176,2403
25/05/2019 16:08:10.180,2339
25/05/2019 16:08:10.184,2663
25/05/2019 16:08:10.188,2591
25/05/2019 16:08:10.192,2443
25/05/2019 16:08:10.196,2311
25/05/2019 16:08:10.200,2623
25/05/2019 16:08:10.204,2607
25/05/2019 16:08:10.208,2463
25/05/2019 16:08:10.212,2279
25/05/2019 16:08:10.216,2555
25/05/2019 16:08:10.220,2615
25/05/2019 16:08:10.224,2483
25/05/2019 16:08:10.228,2283
25/05/2019 16:08:10.232,2483
25/05/2019 16:08:10.236,2615
25/05/2019 16:08:10.240,2479
25/05/2019 16:08:10.244,2263
25/05/2019 16:08:10.248,2363
25/05/2019 16:08:10.252,2583
25/05/2019 16:08:10.256,2483
25/05/2019 16:08:10.260,2287
25/05/2019 16:08:10.264,2311
25/05/2019 16:08:10.268,2603
25/05/2019 16:08:10.272,2503
25/05/2019 16:08:10.276,2311
25/05/2019 16:08:10.280,2183
25/05/2019 16:08:10.284,2387
25/05/2019 16:08:10.288,2295
25/05/2019 16:08:10.292,2143
25/05/2019 16:08:10.296,2027
25/05/2019 16:08:10.300,2415
25/05/2019 16:08:10.304,2647
25/05/2019 16:08:10.308,2835
25/05/2019 16:08:10.312,2871
25/05/2019 16:08:10.316,3015
25/05/2019 16:08:10.320,2875
25/05/2019 16:08:10.324,2619
25/05/2019 16:08:10.328,2355
25/05/2019 16:08:10.332,2483
25/05/2019 16:08:10.336,2571
25/05/2019 16:08:10.340,2455
25/05/2019 16:08:10.344,2299
25/05/2019 16:08:10.348,2407
25/05/2019 16:08:10.352,2571
25/05/2019 16:08:10.356,2479
25/05/2019 16:08:10.360,2319
25/05/2019 16:08:10.364,2335
25/05/2019 16:08:10.368,2535
25/05/2019 16:08:10.372,2459
25/05/2019 16:08:10.376,2335
25/05/2019 16:08:10.380,2315
25/05/2019 16:08:10.384,2555
25/05/2019 16:08:10.388,2515
25/05/2019 16:08:10.392,2415
25/05/2019 16:08:10.396,2319
25/05/2019 16:08:10.400,2507
25/05/2019 16:08:10.404,2467
25/05/2019 16:08:10.408,2391
25/05/2019 16:08:10.412,2295
25/05/2019 16:08:10.416,2515
25/05/2019 16:08:10.420,2555
25/05/2019 16:08:10.424,2479
25/05/2019 16:08:10.428,2351
25/05/2019 16:08:10.432,2503
25/05/2019 16:08:10.436,2579
25/05/2019 16:08:10.440,2495
25/05/2019 16:08:10.444,2343
25/05/2019 16:08:10.448,2415
25/05/2019 16:08:10.452,2547
25/05/2019 16:08:10.456,2471
25/05/2019 16:08:10.460,2367
25/05/2019 16:08:10.464,2419
25/05/2019 16:08:10.468,2595
25/05/2019 16:08:10.472,2547
25/05/2019 16:08:10.476,2443
25/05/2019 16:08:10.480,2411
25/05/2019 16:08:10.484,2619
25/05/2019 16:08:10.488,2599
25/05/2019 16:08:10.492,2475
25/05/2019 16:08:10.496,2323
25/05/2019 16:08:10.500,2471
25/05/2019 16:08:10.504,2479
25/05/2019 16:08:10.508,2447
25/05/2019 16:08:10.512,2355
25/05/2019 16:08:10.516,2547
25/05/2019 16:08:10.520,2583
25/05/2019 16:08:10.524,2491
25/05/2019 16:08:10.528,2311
25/05/2019 16:08:10.532,2431
25/05/2019 16:08:10.536,2535
25/05/2019 16:08:10.540,2483
25/05/2019 16:08:10.544,2359
25/05/2019 16:08:10.548,2467
25/05/2019 16:08:10.552,2615
25/05/2019 16:08:10.556,2559
25/05/2019 16:08:10.560,2415
25/05/2019 16:08:10.564,2419
25/05/2019 16:08:10.568,2567
25/05/2019 16:08:10.572,2523
25/05/2019 16:08:10.576,2439
25/05/2019 16:08:10.580,2403
25/05/2019 16:08:10.584,2555
25/05/2019 16:08:10.588,2467
25/05/2019 16:08:10.592,2371
25/05/2019 16:08:10.596,2303
25/05/2019 16:08:10.600,2507
25/05/2019 16:08:10.604,2531
25/05/2019 16:08:10.608,2507
25/05/2019 16:08:10.612,2427
25/05/2019 16:08:10.616,2663
25/05/2019 16:08:10.620,2643
25/05/2019 16:08:10.624,2459
25/05/2019 16:08:10.628,2255
25/05/2019 16:08:10.632,2487
25/05/2019 16:08:10.636,2623
25/05/2019 16:08:10.640,2535
25/05/2019 16:08:10.644,2359
25/05/2019 16:08:10.648,2447
25/05/2019 16:08:10.652,2555
25/05/2019 16:08:10.656,2475
25/05/2019 16:08:10.660,2343
25/05/2019 16:08:10.664,2399
25/05/2019 16:08:10.668,2567
25/05/2019 16:08:10.672,2483
25/05/2019 16:08:10.676,2339
25/05/2019 16:08:10.680,2239
25/05/2019 16:08:10.684,2411
25/05/2019 16:08:10.688,2399
25/05/2019 16:08:10.692,2343
25/05/2019 16:08:10.696,2243
25/05/2019 16:08:10.700,2431
25/05/2019 16:08:10.704,2443
25/05/2019 16:08:10.708,2403
25/05/2019 16:08:10.712,2339
25/05/2019 16:08:10.716,2531
25/05/2019 16:08:10.720,2463
25/05/2019 16:08:10.724,2359
25/05/2019 16:08:10.728,2323
25/05/2019 16:08:10.732,2575
25/05/2019 16:08:10.736,2631
25/05/2019 16:08:10.740,2487
25/05/2019 16:08:10.744,2287
25/05/2019 16:08:10.748,2387
25/05/2019 16:08:10.752,2495
25/05/2019 16:08:10.756,2411
25/05/2019 16:08:10.760,2251
25/05/2019 16:08:10.764,2319
25/05/2019 16:08:10.768,2511
25/05/2019 16:08:10.772,2431
25/05/2019 16:08:10.776,2287
25/05/2019 16:08:10.780,2267
25/05/2019 16:08:10.784,2467
25/05/2019 16:08:10.788,2387
25/05/2019 16:08:10.792,2239
25/05/2019 16:08:10.796,2155
25/05/2019 16:08:10.800,2415
25/05/2019 16:08:10.804,2427
25/05/2019 16:08:10.808,2371
25/05/2019 16:08:10.812,2295
25/05/2019 16:08:10.816,2543
25/05/2019 16:08:10.820,2567
25/05/2019 16:08:10.824,2471
25/05/2019 16:08:10.828,2311
25/05/2019 16:08:10.832,2471
25/05/2019 16:08:10.836,2511
25/05/2019 16:08:10.840,2419
25/05/2019 16:08:10.844,2263
25/05/2019 16:08:10.848,2395
25/05/2019 16:08:10.852,2503
25/05/2019 16:08:10.856,2423
25/05/2019 16:08:10.860,2303
25/05/2019 16:08:10.864,2379
25/05/2019 16:08:10.868,2475
25/05/2019 16:08:10.872,2339
25/05/2019 16:08:10.876,2207
25/05/2019 16:08:10.880,2295
25/05/2019 16:08:10.884,2535
25/05/2019 16:08:10.888,2479
25/05/2019 16:08:10.892,2415
25/05/2019 16:08:10.896,2371
25/05/2019 16:08:10.900,2539
25/05/2019 16:08:10.904,2463
25/05/2019 16:08:10.908,2403
25/05/2019 16:08:10.912,2343
25/05/2019 16:08:10.916,2527
25/05/2019 16:08:10.920,2459
25/05/2019 16:08:10.924,2351
25/05/2019 16:08:10.928,2291
25/05/2019 16:08:10.932,2507
25/05/2019 16:08:10.936,2539
25/05/2019 16:08:10.940,2495
25/05/2019 16:08:10.944,2351
25/05/2019 16:08:10.948,2363
25/05/2019 16:08:10.952,2323
25/05/2019 16:08:10.956,2351
25/05/2019 16:08:10.960,2363
25/05/2019 16:08:10.964,2415
25/05/2019 16:08:10.968,2463
25/05/2019 16:08:10.972,2411
25/05/2019 16:08:10.976,2351
25/05/2019 16:08:10.980,2415
25/05/2019 16:08:10.984,2571
25/05/2019 16:08:10.988,2479
25/05/2019 16:08:10.992,2355
25/05/2019 16:08:10.996,2347
25/05/2019 16:08:11.000,2551
25/05/2019 16:08:11.004,2391
25/05/2019 16:08:11.008,2135
25/05/2019 16:08:11.012,2091
25/05/2019 16:08:11.016,2503
25/05/2019 16:08:11.020,2611
25/05/2019 16:08:11.024,2483
25/05/2019 16:08:11.028,2255
25/05/2019 16:08:11.032,2411
25/05/2019 16:08:11.036,2463
25/05/2019 16:08:11.040,2395
25/05/2019 16:08:11.044,2279
25/05/2019 16:08:11.048,2423
25/05/2019 16:08:11.052,2479
25/05/2019 16:08:11.056,2319
25/05/2019 16:08:11.060,2055
25/05/2019 16:08:11.064,2055
25/05/2019 16:08:11.068,2167
25/05/2019 16:08:11.072,2083
25/05/2019 16:08:11.076,1999
25/05/2019 16:08:11.080,2255
25/05/2019 16:08:11.084,2863
25/05/2019 16:08:11.088,3039
25/05/2019 16:08:11.092,2751
25/05/2019 16:08:11.096,2559
25/05/2019 16:08:11.100,2751
25/05/2019 16:08:11.104,2619
25/05/2019 16:08:11.108,2431
25/05/2019 16:08:11.112,2287
25/05/2019 16:08:11.116,2427
25/05/2019 16:08:11.120,2387
25/05/2019 16:08:11.124,2347
25/05/2019 16:08:11.128,2287
25/05/2019 16:08:11.132,2499
25/05/2019 16:08:11.136,2483
25/05/2019 16:08:11.140,2363
25/05/2019 16:08:11.144,2215
25/05/2019 16:08:11.148,2411
25/05/2019 16:08:11.152,2455
25/05/2019 16:08:11.156,2407
25/05/2019 16:08:11.160,2351
25/05/2019 16:08:11.164,2431
25/05/2019 16:08:11.168,2475
25/05/2019 16:08:11.172,2335
25/05/2019 16:08:11.176,2211
25/05/2019 16:08:11.180,2247
25/05/2019 16:08:11.184,2475
25/05/2019 16:08:11.188,2455
25/05/2019 16:08:11.192,2351
25/05/2019 16:08:11.196,2351
25/05/2019 16:08:11.200,2603
25/05/2019 16:08:11.204,2519
25/05/2019 16:08:11.208,2423
25/05/2019 16:08:11.212,2419
25/05/2019 16:08:11.216,2567
25/05/2019 16:08:11.220,2487
25/05/2019 16:08:11.224,2403
25/05/2019 16:08:11.228,2243
25/05/2019 16:08:11.232,2415
25/05/2019 16:08:11.236,2507
25/05/2019 16:08:11.240,2479
25/05/2019 16:08:11.244,2295
25/05/2019 16:08:11.248,2379
25/05/2019 16:08:11.252,2463
25/05/2019 16:08:11.256,2443
25/05/2019 16:08:11.260,2335
25/05/2019 16:08:11.264,2463
25/05/2019 16:08:11.268,2567
25/05/2019 16:08:11.272,2503
25/05/2019 16:08:11.276,2383
25/05/2019 16:08:11.280,2367
25/05/2019 16:08:11.284,2499
25/05/2019 16:08:11.288,2439
25/05/2019 16:08:11.292,2399
25/05/2019 16:08:11.296,2367
25/05/2019 16:08:11.300,2595
25/05/2019 16:08:11.304,2571
25/05/2019 16:08:11.308,2419
25/05/2019 16:08:11.312,2315
25/05/2019 16:08:11.316,2503
25/05/2019 16:08:11.320,2419
25/05/2019 16:08:11.324,2395
25/05/2019 16:08:11.328,2379
25/05/2019 16:08:11.332,2595
25/05/2019 16:08:11.336,2583
25/05/2019 16:08:11.340,2499
25/05/2019 16:08:11.344,2299
25/05/2019 16:08:11.348,2495
25/05/2019 16:08:11.352,2651
25/05/2019 16:08:11.356,2535
25/05/2019 16:08:11.360,2239
25/05/2019 16:08:11.364,2315
25/05/2019 16:08:11.368,2475
25/05/2019 16:08:11.372,2391
25/05/2019 16:08:11.376,2239
25/05/2019 16:08:11.380,2339
25/05/2019 16:08:11.384,2519
25/05/2019 16:08:11.388,2491
25/05/2019 16:08:11.392,2507
25/05/2019 16:08:11.396,2579
25/05/2019 16:08:11.400,2759
25/05/2019 16:08:11.404,2655
25/05/2019 16:08:11.408,2551
25/05/2019 16:08:11.412,2575
25/05/2019 16:08:11.416,2887
25/05/2019 16:08:11.420,2755
25/05/2019 16:08:11.424,2475
25/05/2019 16:08:11.428,2199
25/05/2019 16:08:11.432,2411
25/05/2019 16:08:11.436,2407
25/05/2019 16:08:11.440,2283
25/05/2019 16:08:11.444,2063
25/05/2019 16:08:11.448,2239
25/05/2019 16:08:11.452,2231
25/05/2019 16:08:11.456,2123
25/05/2019 16:08:11.460,1967
25/05/2019 16:08:11.464,2187
25/05/2019 16:08:11.468,2355
25/05/2019 16:08:11.472,2223
25/05/2019 16:08:11.476,2027
25/05/2019 16:08:11.480,2155
25/05/2019 16:08:11.484,2395
25/05/2019 16:08:11.488,2279
25/05/2019 16:08:11.492,2099
25/05/2019 16:08:11.496,2127
25/05/2019 16:08:11.500,2451
25/05/2019 16:08:11.504,2343
25/05/2019 16:08:11.508,2203
25/05/2019 16:08:11.512,2227
25/05/2019 16:08:11.516,2547
25/05/2019 16:08:11.520,2407
25/05/2019 16:08:11.524,2275
25/05/2019 16:08:11.528,2167
25/05/2019 16:08:11.532,2519
25/05/2019 16:08:11.536,2523
25/05/2019 16:08:11.540,2351
25/05/2019 16:08:11.544,2123
25/05/2019 16:08:11.548,2375
25/05/2019 16:08:11.552,2411
25/05/2019 16:08:11.556,2271
25/05/2019 16:08:11.560,2083
25/05/2019 16:08:11.564,2299
25/05/2019 16:08:11.568,2463
25/05/2019 16:08:11.572,2371
25/05/2019 16:08:11.576,2195
25/05/2019 16:08:11.580,2319
25/05/2019 16:08:11.584,2495
25/05/2019 16:08:11.588,2323
25/05/2019 16:08:11.592,2115
25/05/2019 16:08:11.596,2163
25/05/2019 16:08:11.600,2483
25/05/2019 16:08:11.604,2379
25/05/2019 16:08:11.608,2207
25/05/2019 16:08:11.612,2147
25/05/2019 16:08:11.616,2479
25/05/2019 16:08:11.620,2427
25/05/2019 16:08:11.624,2283
25/05/2019 16:08:11.628,2159
25/05/2019 16:08:11.632,2463
25/05/2019 16:08:11.636,2451
25/05/2019 16:08:11.640,2323
25/05/2019 16:08:11.644,2143
25/05/2019 16:08:11.648,2399
25/05/2019 16:08:11.652,2431
25/05/2019 16:08:11.656,2299
25/05/2019 16:08:11.660,2123
25/05/2019 16:08:11.664,2327
25/05/2019 16:08:11.668,2475
25/05/2019 16:08:11.672,2371
25/05/2019 16:08:11.676,2207
25/05/2019 16:08:11.680,2331
25/05/2019 16:08:11.684,2515
25/05/2019 16:08:11.688,2395
25/05/2019 16:08:11.692,2203
25/05/2019 16:08:11.696,2211
25/05/2019 16:08:11.700,2447
25/05/2019 16:08:11.704,2307
25/05/2019 16:08:11.708,2111
25/05/2019 16:08:11.712,2059
25/05/2019 16:08:11.716,2359
25/05/2019 16:08:11.720,2319
25/05/2019 16:08:11.724,2227
25/05/2019 16:08:11.728,2163
25/05/2019 16:08:11.732,2411
25/05/2019 16:08:11.736,2335
25/05/2019 16:08:11.740,2171
25/05/2019 16:08:11.744,2023
25/05/2019 16:08:11.748,2251
25/05/2019 16:08:11.752,2299
25/05/2019 16:08:11.756,2227
25/05/2019 16:08:11.760,2095
25/05/2019 16:08:11.764,2299
25/05/2019 16:08:11.768,2395
25/05/2019 16:08:11.772,2299
25/05/2019 16:08:11.776,2171
25/05/2019 16:08:11.780,2319
25/05/2019 16:08:11.784,2475
25/05/2019 16:08:11.788,2323
25/05/2019 16:08:11.792,2099
25/05/2019 16:08:11.796,2039
25/05/2019 16:08:11.800,2215
25/05/2019 16:08:11.804,2111
25/05/2019 16:08:11.808,1967
25/05/2019 16:08:11.812,2059
25/05/2019 16:08:11.816,2555
25/05/2019 16:08:11.820,2827
25/05/2019 16:08:11.824,2887
25/05/2019 16:08:11.828,2691
25/05/2019 16:08:11.832,2747
25/05/2019 16:08:11.836,2579
25/05/2019 16:08:11.840,2399
25/05/2019 16:08:11.844,2223
25/05/2019 16:08:11.848,2423
25/05/2019 16:08:11.852,2455
25/05/2019 16:08:11.856,2379
25/05/2019 16:08:11.860,2231
25/05/2019 16:08:11.864,2379
25/05/2019 16:08:11.868,2447
25/05/2019 16:08:11.872,2351
25/05/2019 16:08:11.876,2187
25/05/2019 16:08:11.880,2291
25/05/2019 16:08:11.884,2439
25/05/2019 16:08:11.888,2363
25/05/2019 16:08:11.892,2227
25/05/2019 16:08:11.896,2263
25/05/2019 16:08:11.900,2383
25/05/2019 16:08:11.904,2291
25/05/2019 16:08:11.908,2199
25/05/2019 16:08:11.912,2071
25/05/2019 16:08:11.916,2155
25/05/2019 16:08:11.920,2175
25/05/2019 16:08:11.924,2199
25/05/2019 16:08:11.928,2223
25/05/2019 16:08:11.932,2507
25/05/2019 16:08:11.936,2531
25/05/2019 16:08:11.940,2455
25/05/2019 16:08:11.944,2347
25/05/2019 16:08:11.948,2551
25/05/2019 16:08:11.952,2547
25/05/2019 16:08:11.956,2439
25/05/2019 16:08:11.960,2287
25/05/2019 16:08:11.964,2443
25/05/2019 16:08:11.968,2507
25/05/2019 16:08:11.972,2419
25/05/2019 16:08:11.976,2287
25/05/2019 16:08:11.980,2363
25/05/2019 16:08:11.984,2467
25/05/2019 16:08:11.988,2411
25/05/2019 16:08:11.992,2311
25/05/2019 16:08:11.996,2367
25/05/2019 16:08:12.000,2531
25/05/2019 16:08:12.004,2471
25/05/2019 16:08:12.008,2331
25/05/2019 16:08:12.012,2299
25/05/2019 16:08:12.016,2443
25/05/2019 16:08:12.020,2339
25/05/2019 16:08:12.024,2207
25/05/2019 16:08:12.028,2139
25/05/2019 16:08:12.032,2339
25/05/2019 16:08:12.036,2335
25/05/2019 16:08:12.040,2259
25/05/2019 16:08:12.044,2151
25/05/2019 16:08:12.048,2339
25/05/2019 16:08:12.052,2371
25/05/2019 16:08:12.056,2327
25/05/2019 16:08:12.060,2207
25/05/2019 16:08:12.064,2327
25/05/2019 16:08:12.068,2367
25/05/2019 16:08:12.072,2295
25/05/2019 16:08:12.076,2207
25/05/2019 16:08:12.080,2347
25/05/2019 16:08:12.084,2471
25/05/2019 16:08:12.088,2419
25/05/2019 16:08:12.092,2311
25/05/2019 16:08:12.096,2355
25/05/2019 16:08:12.100,2495
25/05/2019 16:08:12.104,2443
25/05/2019 16:08:12.108,2355
25/05/2019 16:08:12.112,2367
25/05/2019 16:08:12.116,2495
25/05/2019 16:08:12.120,2419
25/05/2019 16:08:12.124,2335
25/05/2019 16:08:12.128,2299
25/05/2019 16:08:12.132,2495
25/05/2019 16:08:12.136,2455
25/05/2019 16:08:12.140,2347
25/05/2019 16:08:12.144,2223
25/05/2019 16:08:12.148,2383
25/05/2019 16:08:12.152,2395
25/05/2019 16:08:12.156,2351
25/05/2019 16:08:12.160,2259
25/05/2019 16:08:12.164,2415
25/05/2019 16:08:12.168,2443
25/05/2019 16:08:12.172,2355
25/05/2019 16:08:12.176,2231
25/05/2019 16:08:12.180,2339
25/05/2019 16:08:12.184,2415
25/05/2019 16:08:12.188,2331
25/05/2019 16:08:12.192,2223
25/05/2019 16:08:12.196,2279
25/05/2019 16:08:12.200,2411
25/05/2019 16:08:12.204,2351
25/05/2019 16:08:12.208,2271
25/05/2019 16:08:12.212,2299
25/05/2019 16:08:12.216,2459
25/05/2019 16:08:12.220,2411
25/05/2019 16:08:12.224,2335
25/05/2019 16:08:12.228,2303
25/05/2019 16:08:12.232,2479
25/05/2019 16:08:12.236,2447
25/05/2019 16:08:12.240,2367
25/05/2019 16:08:12.244,2287
25/05/2019 16:08:12.248,2467
25/05/2019 16:08:12.252,2459
25/05/2019 16:08:12.256,2391
25/05/2019 16:08:12.260,2279
25/05/2019 16:08:12.264,2411
25/05/2019 16:08:12.268,2427
25/05/2019 16:08:12.272,2347
25/05/2019 16:08:12.276,2227
25/05/2019 16:08:12.280,2343
25/05/2019 16:08:12.284,2427
25/05/2019 16:08:12.288,2359
25/05/2019 16:08:12.292,2239
25/05/2019 16:08:12.296,2311
25/05/2019 16:08:12.300,2431
25/05/2019 16:08:12.304,2367
25/05/2019 16:08:12.308,2275
25/05/2019 16:08:12.312,2295
25/05/2019 16:08:12.316,2439
25/05/2019 16:08:12.320,2383
25/05/2019 16:08:12.324,2315
25/05/2019 16:08:12.328,2287
25/05/2019 16:08:12.332,2451
25/05/2019 16:08:12.336,2399
25/05/2019 16:08:12.340,2299
25/05/2019 16:08:12.344,2211
25/05/2019 16:08:12.348,2359
25/05/2019 16:08:12.352,2347
25/05/2019 16:08:12.356,2283
25/05/2019 16:08:12.360,2203
25/05/2019 16:08:12.364,2347
25/05/2019 16:08:12.368,2379
25/05/2019 16:08:12.372,2323
25/05/2019 16:08:12.376,2215
25/05/2019 16:08:12.380,2315
25/05/2019 16:08:12.384,2375
25/05/2019 16:08:12.388,2303
25/05/2019 16:08:12.392,2203
25/05/2019 16:08:12.396,2299
25/05/2019 16:08:12.400,2435
25/05/2019 16:08:12.404,2399
25/05/2019 16:08:12.408,2311
25/05/2019 16:08:12.412,2331
25/05/2019 16:08:12.416,2467
25/05/2019 16:08:12.420,2427
25/05/2019 16:08:12.424,2331
25/05/2019 16:08:12.428,2275
25/05/2019 16:08:12.432,2411
25/05/2019 16:08:12.436,2363
25/05/2019 16:08:12.440,2255
25/05/2019 16:08:12.444,2171
25/05/2019 16:08:12.448,2327
25/05/2019 16:08:12.452,2323
25/05/2019 16:08:12.456,2303
25/05/2019 16:08:12.460,2171
25/05/2019 16:08:12.464,2291
25/05/2019 16:08:12.468,2335
25/05/2019 16:08:12.472,2291
25/05/2019 16:08:12.476,2207
25/05/2019 16:08:12.480,2363
25/05/2019 16:08:12.484,2475
25/05/2019 16:08:12.488,2415
25/05/2019 16:08:12.492,2311
25/05/2019 16:08:12.496,2403
25/05/2019 16:08:12.500,2495
25/05/2019 16:08:12.504,2415
25/05/2019 16:08:12.508,2311
25/05/2019 16:08:12.512,2323
25/05/2019 16:08:12.516,2467
25/05/2019 16:08:12.520,2403
25/05/2019 16:08:12.524,2283
25/05/2019 16:08:12.528,2215
25/05/2019 16:08:12.532,2327
25/05/2019 16:08:12.536,2167
25/05/2019 16:08:12.540,2027
25/05/2019 16:08:12.544,1903
25/05/2019 16:08:12.548,2075
25/05/2019 16:08:12.552,2183
25/05/2019 16:08:12.556,2371
25/05/2019 16:08:12.560,2599
25/05/2019 16:08:12.564,2999
25/05/2019 16:08:12.568,2943
25/05/2019 16:08:12.572,2651
25/05/2019 16:08:12.576,2347
25/05/2019 16:08:12.580,2391
25/05/2019 16:08:12.584,2415
25/05/2019 16:08:12.588,2311
25/05/2019 16:08:12.592,2175
25/05/2019 16:08:12.596,2271
25/05/2019 16:08:12.600,2367
25/05/2019 16:08:12.604,2259
25/05/2019 16:08:12.608,2147
25/05/2019 16:08:12.612,2203
25/05/2019 16:08:12.616,2375
25/05/2019 16:08:12.620,2295
25/05/2019 16:08:12.624,2187
25/05/2019 16:08:12.628,2163
25/05/2019 16:08:12.632,2351
25/05/2019 16:08:12.636,2299
25/05/2019 16:08:12.640,2215
25/05/2019 16:08:12.644,2159
25/05/2019 16:08:12.648,2387
25/05/2019 16:08:12.652,2363
25/05/2019 16:08:12.656,2295
25/05/2019 16:08:12.660,2199
25/05/2019 16:08:12.664,2395
25/05/2019 16:08:12.668,2391
25/05/2019 16:08:12.672,2303
25/05/2019 16:08:12.676,2171
25/05/2019 16:08:12.680,2347
25/05/2019 16:08:12.684,2407
25/05/2019 16:08:12.688,2299
25/05/2019 16:08:12.692,2175
25/05/2019 16:08:12.696,2291
25/05/2019 16:08:12.700,2407
25/05/2019 16:08:12.704,2311
25/05/2019 16:08:12.708,2183
25/05/2019 16:08:12.712,2235
25/05/2019 16:08:12.716,2399
25/05/2019 16:08:12.720,2323
25/05/2019 16:08:12.724,2235
25/05/2019 16:08:12.728,2243
25/05/2019 16:08:12.732,2419
25/05/2019 16:08:12.736,2371
25/05/2019 16:08:12.740,2319
25/05/2019 16:08:12.744,2295
25/05/2019 16:08:12.748,2483
25/05/2019 16:08:12.752,2403
25/05/2019 16:08:12.756,2235
25/05/2019 16:08:12.760,2051
25/05/2019 16:08:12.764,2207
25/05/2019 16:08:12.768,2263
25/05/2019 16:08:12.772,2251
25/05/2019 16:08:12.776,2159
25/05/2019 16:08:12.780,2299
25/05/2019 16:08:12.784,2335
25/05/2019 16:08:12.788,2247
25/05/2019 16:08:12.792,2123
25/05/2019 16:08:12.796,2207
25/05/2019 16:08:12.800,2327
25/05/2019 16:08:12.804,2335
25/05/2019 16:08:12.808,2279
25/05/2019 16:08:12.812,2355
25/05/2019 16:08:12.816,2503
25/05/2019 16:08:12.820,2439
25/05/2019 16:08:12.824,2351
25/05/2019 16:08:12.828,2351
25/05/2019 16:08:12.832,2483
25/05/2019 16:08:12.836,2407
25/05/2019 16:08:12.840,2299
25/05/2019 16:08:12.844,2231
25/05/2019 16:08:12.848,2367
25/05/2019 16:08:12.852,2315
25/05/2019 16:08:12.856,2239
25/05/2019 16:08:12.860,2143
25/05/2019 16:08:12.864,2279
25/05/2019 16:08:12.868,2279
25/05/2019 16:08:12.872,2235
25/05/2019 16:08:12.876,2171
25/05/2019 16:08:12.880,2319
25/05/2019 16:08:12.884,2367
25/05/2019 16:08:12.888,2303
25/05/2019 16:08:12.892,2203
25/05/2019 16:08:12.896,2311
25/05/2019 16:08:12.900,2391
25/05/2019 16:08:12.904,2323
25/05/2019 16:08:12.908,2247
25/05/2019 16:08:12.912,2299
25/05/2019 16:08:12.916,2383
25/05/2019 16:08:12.920,2299
25/05/2019 16:08:12.924,2183
25/05/2019 16:08:12.928,2179
25/05/2019 16:08:12.932,2331
25/05/2019 16:08:12.936,2295
25/05/2019 16:08:12.940,2239
25/05/2019 16:08:12.944,2211
25/05/2019 16:08:12.948,2363
25/05/2019 16:08:12.952,2323
25/05/2019 16:08:12.956,2255
25/05/2019 16:08:12.960,2183
25/05/2019 16:08:12.964,2343
25/05/2019 16:08:12.968,2351
25/05/2019 16:08:12.972,2295
25/05/2019 16:08:12.976,2215
25/05/2019 16:08:12.980,2351
25/05/2019 16:08:12.984,2379
25/05/2019 16:08:12.988,2315
25/05/2019 16:08:12.992,2227
25/05/2019 16:08:12.996,2331
25/05/2019 16:08:13.000,2391
25/05/2019 16:08:13.004,2311
25/05/2019 16:08:13.008,2207
25/05/2019 16:08:13.012,2259
25/05/2019 16:08:13.016,2367
25/05/2019 16:08:13.020,2303
25/05/2019 16:08:13.024,2215
25/05/2019 16:08:13.028,2227
25/05/2019 16:08:13.032,2367
25/05/2019 16:08:13.036,2327
25/05/2019 16:08:13.040,2251
25/05/2019 16:08:13.044,2211
25/05/2019 16:08:13.048,2367
25/05/2019 16:08:13.052,2339
25/05/2019 16:08:13.056,2267
25/05/2019 16:08:13.060,2203
25/05/2019 16:08:13.064,2367
25/05/2019 16:08:13.068,2287
25/05/2019 16:08:13.072,2203
25/05/2019 16:08:13.076,2135
25/05/2019 16:08:13.080,2307
25/05/2019 16:08:13.084,2355
25/05/2019 16:08:13.088,2307
25/05/2019 16:08:13.092,2207
25/05/2019 16:08:13.096,2323
25/05/2019 16:08:13.100,2399
25/05/2019 16:08:13.104,2327
25/05/2019 16:08:13.108,2219
25/05/2019 16:08:13.112,2275
25/05/2019 16:08:13.116,2395
25/05/2019 16:08:13.120,2335
25/05/2019 16:08:13.124,2251
25/05/2019 16:08:13.128,2299
25/05/2019 16:08:13.132,2455
25/05/2019 16:08:13.136,2387
25/05/2019 16:08:13.140,2287
25/05/2019 16:08:13.144,2239
25/05/2019 16:08:13.148,2395
25/05/2019 16:08:13.152,2351
25/05/2019 16:08:13.156,2271
25/05/2019 16:08:13.160,2203
25/05/2019 16:08:13.164,2359
25/05/2019 16:08:13.168,2339
25/05/2019 16:08:13.172,2263
25/05/2019 16:08:13.176,2167
25/05/2019 16:08:13.180,2315
25/05/2019 16:08:13.184,2343
25/05/2019 16:08:13.188,2275
25/05/2019 16:08:13.192,2175
25/05/2019 16:08:13.196,2287
25/05/2019 16:08:13.200,2347
25/05/2019 16:08:13.204,2279
25/05/2019 16:08:13.208,2179
25/05/2019 16:08:13.212,2247
25/05/2019 16:08:13.216,2355
25/05/2019 16:08:13.220,2291
25/05/2019 16:08:13.224,2191
25/05/2019 16:08:13.228,2215
25/05/2019 16:08:13.232,2371
25/05/2019 16:08:13.236,2311
25/05/2019 16:08:13.240,2183
25/05/2019 16:08:13.244,2079
25/05/2019 16:08:13.248,2147
25/05/2019 16:08:13.252,2039
25/05/2019 16:08:13.256,1939
25/05/2019 16:08:13.260,1879
25/05/2019 16:08:13.264,2151
25/05/2019 16:08:13.268,2339
25/05/2019 16:08:13.272,2575
25/05/2019 16:08:13.276,2739
25/05/2019 16:08:13.280,2843
25/05/2019 16:08:13.284,2671
25/05/2019 16:08:13.288,2439
25/05/2019 16:08:13.292,2227
25/05/2019 16:08:13.296,2291
25/05/2019 16:08:13.300,2327
25/05/2019 16:08:13.304,2239
25/05/2019 16:08:13.308,2127
25/05/2019 16:08:13.312,2211
25/05/2019 16:08:13.316,2331
25/05/2019 16:08:13.320,2271
25/05/2019 16:08:13.324,2187
25/05/2019 16:08:13.328,2203
25/05/2019 16:08:13.332,2331
25/05/2019 16:08:13.336,2267
25/05/2019 16:08:13.340,2191
25/05/2019 16:08:13.344,2179
25/05/2019 16:08:13.348,2339
25/05/2019 16:08:13.352,2303
25/05/2019 16:08:13.356,2231
25/05/2019 16:08:13.360,2167
25/05/2019 16:08:13.364,2339
25/05/2019 16:08:13.368,2319
25/05/2019 16:08:13.372,2251
25/05/2019 16:08:13.376,2163
25/05/2019 16:08:13.380,2319
25/05/2019 16:08:13.384,2335
25/05/2019 16:08:13.388,2267
25/05/2019 16:08:13.392,2171
25/05/2019 16:08:13.396,2299
25/05/2019 16:08:13.400,2351
25/05/2019 16:08:13.404,2283
25/05/2019 16:08:13.408,2179
25/05/2019 16:08:13.412,2259
25/05/2019 16:08:13.416,2355
25/05/2019 16:08:13.420,2287
25/05/2019 16:08:13.424,2191
25/05/2019 16:08:13.428,2223
25/05/2019 16:08:13.432,2359
25/05/2019 16:08:13.436,2299
25/05/2019 16:08:13.440,2211
25/05/2019 16:08:13.444,2191
25/05/2019 16:08:13.448,2347
25/05/2019 16:08:13.452,2303
25/05/2019 16:08:13.456,2223
25/05/2019 16:08:13.460,2167
25/05/2019 16:08:13.464,2331
25/05/2019 16:08:13.468,2315
25/05/2019 16:08:13.472,2247
25/05/2019 16:08:13.476,2167
25/05/2019 16:08:13.480,2327
25/05/2019 16:08:13.484,2343
25/05/2019 16:08:13.488,2279
25/05/2019 16:08:13.492,2175
25/05/2019 16:08:13.496,2299
25/05/2019 16:08:13.500,2351
25/05/2019 16:08:13.504,2283
25/05/2019 16:08:13.508,2183
25/05/2019 16:08:13.512,2275
25/05/2019 16:08:13.516,2375
25/05/2019 16:08:13.520,2311
25/05/2019 16:08:13.524,2219
25/05/2019 16:08:13.528,2263
25/05/2019 16:08:13.532,2403
25/05/2019 16:08:13.536,2339
25/05/2019 16:08:13.540,2243
25/05/2019 16:08:13.544,2231
25/05/2019 16:08:13.548,2383
25/05/2019 16:08:13.552,2339
25/05/2019 16:08:13.556,2259
25/05/2019 16:08:13.560,2199
25/05/2019 16:08:13.564,2347
25/05/2019 16:08:13.568,2327
25/05/2019 16:08:13.572,2239
25/05/2019 16:08:13.576,2159
25/05/2019 16:08:13.580,2319
25/05/2019 16:08:13.584,2323
25/05/2019 16:08:13.588,2247
25/05/2019 16:08:13.592,2143
25/05/2019 16:08:13.596,2263
25/05/2019 16:08:13.600,2303
25/05/2019 16:08:13.604,2239
25/05/2019 16:08:13.608,2143
25/05/2019 16:08:13.612,2239
25/05/2019 16:08:13.616,2339
25/05/2019 16:08:13.620,2263
25/05/2019 16:08:13.624,2163
25/05/2019 16:08:13.628,2215
25/05/2019 16:08:13.632,2335
25/05/2019 16:08:13.636,2275
25/05/2019 16:08:13.640,2187
25/05/2019 16:08:13.644,2171
25/05/2019 16:08:13.648,2331
25/05/2019 16:08:13.652,2287
25/05/2019 16:08:13.656,2211
25/05/2019 16:08:13.660,2167
25/05/2019 16:08:13.664,2335
25/05/2019 16:08:13.668,2303
25/05/2019 16:08:13.672,2239
25/05/2019 16:08:13.676,2155
25/05/2019 16:08:13.680,2311
25/05/2019 16:08:13.684,2319
25/05/2019 16:08:13.688,2251
25/05/2019 16:08:13.692,2159
25/05/2019 16:08:13.696,2295
25/05/2019 16:08:13.700,2343
25/05/2019 16:08:13.704,2271
25/05/2019 16:08:13.708,2163
25/05/2019 16:08:13.712,2259
25/05/2019 16:08:13.716,2343
25/05/2019 16:08:13.720,2283
25/05/2019 16:08:13.724,2183
25/05/2019 16:08:13.728,2235
25/05/2019 16:08:13.732,2355
25/05/2019 16:08:13.736,2283
25/05/2019 16:08:13.740,2195
25/05/2019 16:08:13.744,2195
25/05/2019 16:08:13.748,2351
25/05/2019 16:08:13.752,2299
25/05/2019 16:08:13.756,2227
25/05/2019 16:08:13.760,2187
25/05/2019 16:08:13.764,2355
25/05/2019 16:08:13.768,2319
25/05/2019 16:08:13.772,2239
25/05/2019 16:08:13.776,2147
25/05/2019 16:08:13.780,2315
25/05/2019 16:08:13.784,2319
25/05/2019 16:08:13.788,2255
25/05/2019 16:08:13.792,2155
25/05/2019 16:08:13.796,2295
25/05/2019 16:08:13.800,2335
25/05/2019 16:08:13.804,2263
25/05/2019 16:08:13.808,2151
25/05/2019 16:08:13.812,2259
25/05/2019 16:08:13.816,2339
25/05/2019 16:08:13.820,2275
25/05/2019 16:08:13.824,2171
25/05/2019 16:08:13.828,2231
25/05/2019 16:08:13.832,2351
25/05/2019 16:08:13.836,2275
25/05/2019 16:08:13.840,2191
25/05/2019 16:08:13.844,2199
25/05/2019 16:08:13.848,2347
25/05/2019 16:08:13.852,2283
25/05/2019 16:08:13.856,2199
25/05/2019 16:08:13.860,2159
25/05/2019 16:08:13.864,2335
25/05/2019 16:08:13.868,2295
25/05/2019 16:08:13.872,2223
25/05/2019 16:08:13.876,2151
25/05/2019 16:08:13.880,2323
25/05/2019 16:08:13.884,2323
25/05/2019 16:08:13.888,2251
25/05/2019 16:08:13.892,2143
25/05/2019 16:08:13.896,2287
25/05/2019 16:08:13.900,2315
25/05/2019 16:08:13.904,2239
25/05/2019 16:08:13.908,2127
25/05/2019 16:08:13.912,2247
25/05/2019 16:08:13.916,2331
25/05/2019 16:08:13.920,2243
25/05/2019 16:08:13.924,2123
25/05/2019 16:08:13.928,2179
25/05/2019 16:08:13.932,2315
25/05/2019 16:08:13.936,2251
25/05/2019 16:08:13.940,2155
25/05/2019 16:08:13.944,2179
25/05/2019 16:08:13.948,2347
25/05/2019 16:08:13.952,2279
25/05/2019 16:08:13.956,2187
25/05/2019 16:08:13.960,2143
25/05/2019 16:08:13.964,2323
25/05/2019 16:08:13.968,2263
25/05/2019 16:08:13.972,2151
25/05/2019 16:08:13.976,2071
25/05/2019 16:08:13.980,2279
25/05/2019 16:08:13.984,2279
25/05/2019 16:08:13.988,2207
25/05/2019 16:08:13.992,2123
25/05/2019 16:08:13.996,2283
25/05/2019 16:08:14.000,2283
25/05/2019 16:08:14.004,2139
25/05/2019 16:08:14.008,1923
25/05/2019 16:08:14.012,1979
25/05/2019 16:08:14.016,2027
25/05/2019 16:08:14.020,1943
25/05/2019 16:08:14.024,1919
25/05/2019 16:08:14.028,2167
25/05/2019 16:08:14.032,2615
25/05/2019 16:08:14.036,2815
25/05/2019 16:08:14.040,2719
25/05/2019 16:08:14.044,2547
25/05/2019 16:08:14.048,2547
25/05/2019 16:08:14.052,2383
25/05/2019 16:08:14.056,2235
25/05/2019 16:08:14.060,2167
25/05/2019 16:08:14.064,2331
25/05/2019 16:08:14.068,2267
25/05/2019 16:08:14.072,2151
25/05/2019 16:08:14.076,2039
25/05/2019 16:08:14.080,2227
25/05/2019 16:08:14.084,2223
25/05/2019 16:08:14.088,2155
25/05/2019 16:08:14.092,2067
25/05/2019 16:08:14.096,2267
25/05/2019 16:08:14.100,2315
25/05/2019 16:08:14.104,2215
25/05/2019 16:08:14.108,2083
25/05/2019 16:08:14.112,2203
25/05/2019 16:08:14.116,2311
25/05/2019 16:08:14.120,2259
25/05/2019 16:08:14.124,2131
25/05/2019 16:08:14.128,2207
25/05/2019 16:08:14.132,2347
25/05/2019 16:08:14.136,2279
25/05/2019 16:08:14.140,2191
25/05/2019 16:08:14.144,2227
25/05/2019 16:08:14.148,2407
25/05/2019 16:08:14.152,2331
25/05/2019 16:08:14.156,2227
25/05/2019 16:08:14.160,2191
25/05/2019 16:08:14.164,2391
25/05/2019 16:08:14.168,2339
25/05/2019 16:08:14.172,2255
25/05/2019 16:08:14.176,2163
25/05/2019 16:08:14.180,2363
25/05/2019 16:08:14.184,2347
25/05/2019 16:08:14.188,2263
25/05/2019 16:08:14.192,2151
25/05/2019 16:08:14.196,2351
25/05/2019 16:08:14.200,2363
25/05/2019 16:08:14.204,2263
25/05/2019 16:08:14.208,2123
25/05/2019 16:08:14.212,2275
25/05/2019 16:08:14.216,2351
25/05/2019 16:08:14.220,2239
25/05/2019 16:08:14.224,2103
25/05/2019 16:08:14.228,2211
25/05/2019 16:08:14.232,2351
25/05/2019 16:08:14.236,2263
25/05/2019 16:08:14.240,2139
25/05/2019 16:08:14.244,2171
25/05/2019 16:08:14.248,2379
25/05/2019 16:08:14.252,2291
25/05/2019 16:08:14.256,2163
25/05/2019 16:08:14.260,2119
25/05/2019 16:08:14.264,2355
25/05/2019 16:08:14.268,2295
25/05/2019 16:08:14.272,2195
25/05/2019 16:08:14.276,2111
25/05/2019 16:08:14.280,2379
25/05/2019 16:08:14.284,2359
25/05/2019 16:08:14.288,2259
25/05/2019 16:08:14.292,2139
25/05/2019 16:08:14.296,2383
25/05/2019 16:08:14.300,2399
25/05/2019 16:08:14.304,2287
25/05/2019 16:08:14.308,2119
25/05/2019 16:08:14.312,2307
25/05/2019 16:08:14.316,2387
25/05/2019 16:08:14.320,2263
25/05/2019 16:08:14.324,2095
25/05/2019 16:08:14.328,2215
25/05/2019 16:08:14.332,2363
25/05/2019 16:08:14.336,2239
25/05/2019 16:08:14.340,2083
25/05/2019 16:08:14.344,2139
25/05/2019 16:08:14.348,2363
25/05/2019 16:08:14.352,2255
25/05/2019 16:08:14.356,2135
25/05/2019 16:08:14.360,2111
25/05/2019 16:08:14.364,2387
25/05/2019 16:08:14.368,2291
25/05/2019 16:08:14.372,2167
25/05/2019 16:08:14.376,2087
25/05/2019 16:08:14.380,2363
25/05/2019 16:08:14.384,2295
25/05/2019 16:08:14.388,2175
25/05/2019 16:08:14.392,2043
25/05/2019 16:08:14.396,2323
25/05/2019 16:08:14.400,2331
25/05/2019 16:08:14.404,2207
25/05/2019 16:08:14.408,2055
25/05/2019 16:08:14.412,2287
25/05/2019 16:08:14.416,2367
25/05/2019 16:08:14.420,2239
25/05/2019 16:08:14.424,2071
25/05/2019 16:08:14.428,2243
25/05/2019 16:08:14.432,2415
25/05/2019 16:08:14.436,2287
25/05/2019 16:08:14.440,2119
25/05/2019 16:08:14.444,2183
25/05/2019 16:08:14.448,2415
25/05/2019 16:08:14.452,2291
25/05/2019 16:08:14.456,2139
25/05/2019 16:08:14.460,2115
25/05/2019 16:08:14.464,2407
25/05/2019 16:08:14.468,2299
25/05/2019 16:08:14.472,2163
25/05/2019 16:08:14.476,2079
25/05/2019 16:08:14.480,2403
25/05/2019 16:08:14.484,2335
25/05/2019 16:08:14.488,2183
25/05/2019 16:08:14.492,2019
25/05/2019 16:08:14.496,2343
25/05/2019 16:08:14.500,2355
25/05/2019 16:08:14.504,2211
25/05/2019 16:08:14.508,2019
25/05/2019 16:08:14.512,2283
25/05/2019 16:08:14.516,2367
25/05/2019 16:08:14.520,2211
25/05/2019 16:08:14.524,2019
25/05/2019 16:08:14.528,2207
25/05/2019 16:08:14.532,2391
25/05/2019 16:08:14.536,2251
25/05/2019 16:08:14.540,2059
25/05/2019 16:08:14.544,2151
25/05/2019 16:08:14.548,2399
25/05/2019 16:08:14.552,2255
25/05/2019 16:08:14.556,2099
25/05/2019 16:08:14.560,2095
25/05/2019 16:08:14.564,2415
25/05/2019 16:08:14.568,2299
25/05/2019 16:08:14.572,2147
25/05/2019 16:08:14.576,2071
25/05/2019 16:08:14.580,2419
25/05/2019 16:08:14.584,2355
25/05/2019 16:08:14.588,2195
25/05/2019 16:08:14.592,2011
25/05/2019 16:08:14.596,2351
25/05/2019 16:08:14.600,2367
25/05/2019 16:08:14.604,2211
25/05/2019 16:08:14.608,1999
25/05/2019 16:08:14.612,2303
25/05/2019 16:08:14.616,2411
25/05/2019 16:08:14.620,2231
25/05/2019 16:08:14.624,1987
25/05/2019 16:08:14.628,2195
25/05/2019 16:08:14.632,2431
25/05/2019 16:08:14.636,2251
25/05/2019 16:08:14.640,2015
25/05/2019 16:08:14.644,2115
25/05/2019 16:08:14.648,2439
25/05/2019 16:08:14.652,2259
25/05/2019 16:08:14.656,2039
25/05/2019 16:08:14.660,2027
25/05/2019 16:08:14.664,2439
25/05/2019 16:08:14.668,2315
25/05/2019 16:08:14.672,2123
25/05/2019 16:08:14.676,1999
25/05/2019 16:08:14.680,2423
25/05/2019 16:08:14.684,2363
25/05/2019 16:08:14.688,2191
25/05/2019 16:08:14.692,1999
25/05/2019 16:08:14.696,2391
25/05/2019 16:08:14.700,2391
25/05/2019 16:08:14.704,2215
25/05/2019 16:08:14.708,1971
25/05/2019 16:08:14.712,2311
25/05/2019 16:08:14.716,2431
25/05/2019 16:08:14.720,2263
25/05/2019 16:08:14.724,2031
25/05/2019 16:08:14.728,2239
25/05/2019 16:08:14.732,2403
25/05/2019 16:08:14.736,2215
25/05/2019 16:08:14.740,2027
25/05/2019 16:08:14.744,2171
25/05/2019 16:08:14.748,2475
25/05/2019 16:08:14.752,2299
25/05/2019 16:08:14.756,2071
25/05/2019 16:08:14.760,2063
25/05/2019 16:08:14.764,2451
25/05/2019 16:08:14.768,2319
25/05/2019 16:08:14.772,2131
25/05/2019 16:08:14.776,2031
25/05/2019 16:08:14.780,2451
25/05/2019 16:08:14.784,2359
25/05/2019 16:08:14.788,2187
25/05/2019 16:08:14.792,2015
25/05/2019 16:08:14.796,2399
25/05/2019 16:08:14.800,2339
25/05/2019 16:08:14.804,2083
25/05/2019 16:08:14.808,1739
25/05/2019 16:08:14.812,2003
25/05/2019 16:08:14.816,2075
25/05/2019 16:08:14.820,1923
25/05/2019 16:08:14.824,1799
25/05/2019 16:08:14.828,2251
25/05/2019 16:08:14.832,2767
25/05/2019 16:08:14.836,2823
25/05/2019 16:08:14.840,2527
25/05/2019 16:08:14.844,2443
25/05/2019 16:08:14.848,2575
25/05/2019 16:08:14.852,2319
25/05/2019 16:08:14.856,2071
25/05/2019 16:08:14.860,2071
25/05/2019 16:08:14.864,2423
25/05/2019 16:08:14.868,2275
25/05/2019 16:08:14.872,2079
25/05/2019 16:08:14.876,1975
25/05/2019 16:08:14.880,2375
25/05/2019 16:08:14.884,2291
25/05/2019 16:08:14.888,2119
25/05/2019 16:08:14.892,1939
25/05/2019 16:08:14.896,2335
25/05/2019 16:08:14.900,2327
25/05/2019 16:08:14.904,2147
25/05/2019 16:08:14.908,1923
25/05/2019 16:08:14.912,2263
25/05/2019 16:08:14.916,2351
25/05/2019 16:08:14.920,2163
25/05/2019 16:08:14.924,1923
25/05/2019 16:08:14.928,2175
25/05/2019 16:08:14.932,2375
25/05/2019 16:08:14.936,2183
25/05/2019 16:08:14.940,1939
25/05/2019 16:08:14.944,2087
25/05/2019 16:08:14.948,2391
25/05/2019 16:08:14.952,2247
25/05/2019 16:08:14.956,2043
25/05/2019 16:08:14.960,2063
25/05/2019 16:08:14.964,2431
25/05/2019 16:08:14.968,2295
25/05/2019 16:08:14.972,2119
25/05/2019 16:08:14.976,2043
25/05/2019 16:08:14.980,2431
25/05/2019 16:08:14.984,2339
25/05/2019 16:08:14.988,2167
25/05/2019 16:08:14.992,1999
25/05/2019 16:08:14.996,2375
25/05/2019 16:08:15.000,2359
25/05/2019 16:08:15.004,2187
25/05/2019 16:08:15.008,1971
25/05/2019 16:08:15.012,2299
25/05/2019 16:08:15.016,2363
25/05/2019 16:08:15.020,2195
25/05/2019 16:08:15.024,1979
25/05/2019 16:08:15.028,2239
25/05/2019 16:08:15.032,2391
25/05/2019 16:08:15.036,2215
25/05/2019 16:08:15.040,2007
25/05/2019 16:08:15.044,2163
25/05/2019 16:08:15.048,2415
25/05/2019 16:08:15.052,2251
25/05/2019 16:08:15.056,2071
25/05/2019 16:08:15.060,2115
25/05/2019 16:08:15.064,2423
25/05/2019 16:08:15.068,2279
25/05/2019 16:08:15.072,2111
25/05/2019 16:08:15.076,2055
25/05/2019 16:08:15.080,2419
25/05/2019 16:08:15.084,2315
25/05/2019 16:08:15.088,2167
25/05/2019 16:08:15.092,2055
25/05/2019 16:08:15.096,2427
25/05/2019 16:08:15.100,2391
25/05/2019 16:08:15.104,2227
25/05/2019 16:08:15.108,2035
25/05/2019 16:08:15.112,2363
25/05/2019 16:08:15.116,2399
25/05/2019 16:08:15.120,2219
25/05/2019 16:08:15.124,1991
25/05/2019 16:08:15.128,2239
25/05/2019 16:08:15.132,2371
25/05/2019 16:08:15.136,2191
25/05/2019 16:08:15.140,1975
25/05/2019 16:08:15.144,2143
25/05/2019 16:08:15.148,2383
25/05/2019 16:08:15.152,2207
25/05/2019 16:08:15.156,2019
25/05/2019 16:08:15.160,2075
25/05/2019 16:08:15.164,2399
25/05/2019 16:08:15.168,2259
25/05/2019 16:08:15.172,2095
25/05/2019 16:08:15.176,2043
25/05/2019 16:08:15.180,2411
25/05/2019 16:08:15.184,2287
25/05/2019 16:08:15.188,2123
25/05/2019 16:08:15.192,1983
25/05/2019 16:08:15.196,2351
25/05/2019 16:08:15.200,2299
25/05/2019 16:08:15.204,2155
25/05/2019 16:08:15.208,1983
25/05/2019 16:08:15.212,2335
25/05/2019 16:08:15.216,2375
25/05/2019 16:08:15.220,2199
25/05/2019 16:08:15.224,1987
25/05/2019 16:08:15.228,2251
25/05/2019 16:08:15.232,2387
25/05/2019 16:08:15.236,2211
25/05/2019 16:08:15.240,1999
25/05/2019 16:08:15.244,2175
25/05/2019 16:08:15.248,2411
25/05/2019 16:08:15.252,2235
25/05/2019 16:08:15.256,2035
25/05/2019 16:08:15.260,2103
25/05/2019 16:08:15.264,2423
25/05/2019 16:08:15.268,2267
25/05/2019 16:08:15.272,2087
25/05/2019 16:08:15.276,2039
25/05/2019 16:08:15.280,2411
25/05/2019 16:08:15.284,2291
25/05/2019 16:08:15.288,2123
25/05/2019 16:08:15.292,1987
25/05/2019 16:08:15.296,2379
25/05/2019 16:08:15.300,2331
25/05/2019 16:08:15.304,2167
25/05/2019 16:08:15.308,1971
25/05/2019 16:08:15.312,2327
25/05/2019 16:08:15.316,2355
25/05/2019 16:08:15.320,2175
25/05/2019 16:08:15.324,1955
25/05/2019 16:08:15.328,2247
25/05/2019 16:08:15.332,2387
25/05/2019 16:08:15.336,2215
25/05/2019 16:08:15.340,1995
25/05/2019 16:08:15.344,2179
25/05/2019 16:08:15.348,2415
25/05/2019 16:08:15.352,2235
25/05/2019 16:08:15.356,2031
25/05/2019 16:08:15.360,2103
25/05/2019 16:08:15.364,2423
25/05/2019 16:08:15.368,2255
25/05/2019 16:08:15.372,2067
25/05/2019 16:08:15.376,2031
25/05/2019 16:08:15.380,2411
25/05/2019 16:08:15.384,2287
25/05/2019 16:08:15.388,2123
25/05/2019 16:08:15.392,1987
25/05/2019 16:08:15.396,2387
25/05/2019 16:08:15.400,2323
25/05/2019 16:08:15.404,2151
25/05/2019 16:08:15.408,1963
25/05/2019 16:08:15.412,2335
25/05/2019 16:08:15.416,2367
25/05/2019 16:08:15.420,2191
25/05/2019 16:08:15.424,1971
25/05/2019 16:08:15.428,2267
25/05/2019 16:08:15.432,2403
25/05/2019 16:08:15.436,2215
25/05/2019 16:08:15.440,1991
25/05/2019 16:08:15.444,2187
25/05/2019 16:08:15.448,2427
25/05/2019 16:08:15.452,2235
25/05/2019 16:08:15.456,2019
25/05/2019 16:08:15.460,2095
25/05/2019 16:08:15.464,2427
25/05/2019 16:08:15.468,2255
25/05/2019 16:08:15.472,2059
25/05/2019 16:08:15.476,2023
25/05/2019 16:08:15.480,2415
25/05/2019 16:08:15.484,2287
25/05/2019 16:08:15.488,2115
25/05/2019 16:08:15.492,1987
25/05/2019 16:08:15.496,2395
25/05/2019 16:08:15.500,2319
25/05/2019 16:08:15.504,2143
25/05/2019 16:08:15.508,1943
25/05/2019 16:08:15.512,2315
25/05/2019 16:08:15.516,2343
25/05/2019 16:08:15.520,2163
25/05/2019 16:08:15.524,1943
25/05/2019 16:08:15.528,2255
25/05/2019 16:08:15.532,2387
25/05/2019 16:08:15.536,2207
25/05/2019 16:08:15.540,1979
25/05/2019 16:08:15.544,2183
25/05/2019 16:08:15.548,2407
25/05/2019 16:08:15.552,2219
25/05/2019 16:08:15.556,2003
25/05/2019 16:08:15.560,2103
25/05/2019 16:08:15.564,2439
25/05/2019 16:08:15.568,2267
25/05/2019 16:08:15.572,2063
25/05/2019 16:08:15.576,2023
25/05/2019 16:08:15.580,2415
25/05/2019 16:08:15.584,2275
25/05/2019 16:08:15.588,2099
25/05/2019 16:08:15.592,1975
25/05/2019 16:08:15.596,2387
25/05/2019 16:08:15.600,2311
25/05/2019 16:08:15.604,2131
25/05/2019 16:08:15.608,1931
25/05/2019 16:08:15.612,2323
25/05/2019 16:08:15.616,2347
25/05/2019 16:08:15.620,2163
25/05/2019 16:08:15.624,1947
25/05/2019 16:08:15.628,2271
25/05/2019 16:08:15.632,2391
25/05/2019 16:08:15.636,2207
25/05/2019 16:08:15.640,1999
25/05/2019 16:08:15.644,2223
25/05/2019 16:08:15.648,2411
25/05/2019 16:08:15.652,2147
25/05/2019 16:08:15.656,1827
25/05/2019 16:08:15.660,1831
25/05/2019 16:08:15.664,2115
25/05/2019 16:08:15.668,1935
25/05/2019 16:08:15.672,1823
25/05/2019 16:08:15.676,1963
25/05/2019 16:08:15.680,2651
25/05/2019 16:08:15.684,2819
25/05/2019 16:08:15.688,2663
25/05/2019 16:08:15.692,2343
25/05/2019 16:08:15.696,2567
25/05/2019 16:08:15.700,2383
25/05/2019 16:08:15.704,2159
25/05/2019 16:08:15.708,1939
25/05/2019 16:08:15.712,2315
25/05/2019 16:08:15.716,2323
25/05/2019 16:08:15.720,2143
25/05/2019 16:08:15.724,1931
25/05/2019 16:08:15.728,2255
25/05/2019 16:08:15.732,2371
25/05/2019 16:08:15.736,2171
25/05/2019 16:08:15.740,1935
25/05/2019 16:08:15.744,2147
25/05/2019 16:08:15.748,2371
25/05/2019 16:08:15.752,2179
25/05/2019 16:08:15.756,1963
25/05/2019 16:08:15.760,2075
25/05/2019 16:08:15.764,2399
25/05/2019 16:08:15.768,2227
25/05/2019 16:08:15.772,2055
25/05/2019 16:08:15.776,2047
25/05/2019 16:08:15.780,2423
25/05/2019 16:08:15.784,2271
25/05/2019 16:08:15.788,2095
25/05/2019 16:08:15.792,1975
25/05/2019 16:08:15.796,2383
25/05/2019 16:08:15.800,2311
25/05/2019 16:08:15.804,2135
25/05/2019 16:08:15.808,1947
25/05/2019 16:08:15.812,2331
25/05/2019 16:08:15.816,2331
25/05/2019 16:08:15.820,2143
25/05/2019 16:08:15.824,1927
25/05/2019 16:08:15.828,2239
25/05/2019 16:08:15.832,2351
25/05/2019 16:08:15.836,2159
25/05/2019 16:08:15.840,1927
25/05/2019 16:08:15.844,2151
25/05/2019 16:08:15.848,2379
25/05/2019 16:08:15.852,2191
25/05/2019 16:08:15.856,1983
25/05/2019 16:08:15.860,2095
25/05/2019 16:08:15.864,2407
25/05/2019 16:08:15.868,2227
25/05/2019 16:08:15.872,2027
25/05/2019 16:08:15.876,2019
25/05/2019 16:08:15.880,2407
25/05/2019 16:08:15.884,2263
25/05/2019 16:08:15.888,2087
25/05/2019 16:08:15.892,1979
25/05/2019 16:08:15.896,2399
25/05/2019 16:08:15.900,2311
25/05/2019 16:08:15.904,2135
25/05/2019 16:08:15.908,1955
25/05/2019 16:08:15.912,2355
25/05/2019 16:08:15.916,2351
25/05/2019 16:08:15.920,2171
25/05/2019 16:08:15.924,1951
25/05/2019 16:08:15.928,2283
25/05/2019 16:08:15.932,2395
25/05/2019 16:08:15.936,2207
25/05/2019 16:08:15.940,1971
25/05/2019 16:08:15.944,2215
25/05/2019 16:08:15.948,2439
25/05/2019 16:08:15.952,2235
25/05/2019 16:08:15.956,2007
25/05/2019 16:08:15.960,2119
25/05/2019 16:08:15.964,2435
25/05/2019 16:08:15.968,2243
25/05/2019 16:08:15.972,2031
25/05/2019 16:08:15.976,2027
25/05/2019 16:08:15.980,2411
25/05/2019 16:08:15.984,2259
25/05/2019 16:08:15.988,2071
25/05/2019 16:08:15.992,1959
25/05/2019 16:08:15.996,2383
25/05/2019 16:08:16.000,2287
25/05/2019 16:08:16.004,2103
25/05/2019 16:08:16.008,1915
25/05/2019 16:08:16.012,2323
25/05/2019 16:08:16.016,2331
25/05/2019 16:08:16.020,2155
25/05/2019 16:08:16.024,1919
25/05/2019 16:08:16.028,2259
25/05/2019 16:08:16.032,2359
25/05/2019 16:08:16.036,2155
25/05/2019 16:08:16.040,1915
25/05/2019 16:08:16.044,2163
25/05/2019 16:08:16.048,2383
25/05/2019 16:08:16.052,2187
25/05/2019 16:08:16.056,1959
25/05/2019 16:08:16.060,2087
25/05/2019 16:08:16.064,2411
25/05/2019 16:08:16.068,2231
25/05/2019 16:08:16.072,2023
25/05/2019 16:08:16.076,2015
25/05/2019 16:08:16.080,2415
25/05/2019 16:08:16.084,2267
25/05/2019 16:08:16.088,2079
25/05/2019 16:08:16.092,1963
25/05/2019 16:08:16.096,2391
25/05/2019 16:08:16.100,2303
25/05/2019 16:08:16.104,2119
25/05/2019 16:08:16.108,1935
25/05/2019 16:08:16.112,2351
25/05/2019 16:08:16.116,2347
25/05/2019 16:08:16.120,2155
25/05/2019 16:08:16.124,1927
25/05/2019 16:08:16.128,2279
25/05/2019 16:08:16.132,2379
25/05/2019 16:08:16.136,2175
25/05/2019 16:08:16.140,1931
25/05/2019 16:08:16.144,2187
25/05/2019 16:08:16.148,2407
25/05/2019 16:08:16.152,2203
25/05/2019 16:08:16.156,1971
25/05/2019 16:08:16.160,2103
25/05/2019 16:08:16.164,2423
25/05/2019 16:08:16.168,2227
25/05/2019 16:08:16.172,2015
25/05/2019 16:08:16.176,2015
25/05/2019 16:08:16.180,2419
25/05/2019 16:08:16.184,2267
25/05/2019 16:08:16.188,2071
25/05/2019 16:08:16.192,1959
25/05/2019 16:08:16.196,2399
25/05/2019 16:08:16.200,2303
25/05/2019 16:08:16.204,2119
25/05/2019 16:08:16.208,1931
25/05/2019 16:08:16.212,2355
25/05/2019 16:08:16.216,2343
25/05/2019 16:08:16.220,2155
25/05/2019 16:08:16.224,1919
25/05/2019 16:08:16.228,2283
25/05/2019 16:08:16.232,2379
25/05/2019 16:08:16.236,2171
25/05/2019 16:08:16.240,1927
25/05/2019 16:08:16.244,2191
25/05/2019 16:08:16.248,2403
25/05/2019 16:08:16.252,2195
25/05/2019 16:08:16.256,1959
25/05/2019 16:08:16.260,2099
25/05/2019 16:08:16.264,2423
25/05/2019 16:08:16.268,2219
25/05/2019 16:08:16.272,1995
25/05/2019 16:08:16.276,2007
25/05/2019 16:08:16.280,2407
25/05/2019 16:08:16.284,2247
25/05/2019 16:08:16.288,2059
25/05/2019 16:08:16.292,1959
25/05/2019 16:08:16.296,2395
25/05/2019 16:08:16.300,2287
25/05/2019 16:08:16.304,2103
25/05/2019 16:08:16.308,1919
25/05/2019 16:08:16.312,2343
25/05/2019 16:08:16.316,2331
25/05/2019 16:08:16.320,2147
25/05/2019 16:08:16.324,1919
25/05/2019 16:08:16.328,2283
25/05/2019 16:08:16.332,2375
25/05/2019 16:08:16.336,2167
25/05/2019 16:08:16.340,1923
25/05/2019 16:08:16.344,2195
25/05/2019 16:08:16.348,2403
25/05/2019 16:08:16.352,2195
25/05/2019 16:08:16.356,1959
25/05/2019 16:08:16.360,2103
25/05/2019 16:08:16.364,2423
25/05/2019 16:08:16.368,2223
25/05/2019 16:08:16.372,2003
25/05/2019 16:08:16.376,2019
25/05/2019 16:08:16.380,2423
25/05/2019 16:08:16.384,2251
25/05/2019 16:08:16.388,2047
25/05/2019 16:08:16.392,1947
25/05/2019 16:08:16.396,2391
25/05/2019 16:08:16.400,2291
25/05/2019 16:08:16.404,2103
25/05/2019 16:08:16.408,1919
25/05/2019 16:08:16.412,2359
25/05/2019 16:08:16.416,2351
25/05/2019 16:08:16.420,2155
25/05/2019 16:08:16.424,1911
25/05/2019 16:08:16.428,2283
25/05/2019 16:08:16.432,2371
25/05/2019 16:08:16.436,2167
25/05/2019 16:08:16.440,1923
25/05/2019 16:08:16.444,2203
25/05/2019 16:08:16.448,2411
25/05/2019 16:08:16.452,2203
25/05/2019 16:08:16.456,1963
25/05/2019 16:08:16.460,2107
25/05/2019 16:08:16.464,2423
25/05/2019 16:08:16.468,2227
25/05/2019 16:08:16.472,2003
25/05/2019 16:08:16.476,2019
25/05/2019 16:08:16.480,2415
25/05/2019 16:08:16.484,2251
25/05/2019 16:08:16.488,2043
25/05/2019 16:08:16.492,1955
25/05/2019 16:08:16.496,2399
25/05/2019 16:08:16.500,2291
25/05/2019 16:08:16.504,2095
25/05/2019 16:08:16.508,1911
25/05/2019 16:08:16.512,2343
25/05/2019 16:08:16.516,2327
25/05/2019 16:08:16.520,2159
25/05/2019 16:08:16.524,1927
25/05/2019 16:08:16.528,2263
25/05/2019 16:08:16.532,2287
25/05/2019 16:08:16.536,1975
25/05/2019 16:08:16.540,1639
25/05/2019 16:08:16.544,1871
25/05/2019 16:08:16.548,2083
25/05/2019 16:08:16.552,1967
25/05/2019 16:08:16.556,1903
25/05/2019 16:08:16.560,2367
25/05/2019 16:08:16.564,2955
25/05/2019 16:08:16.568,2739
25/05/2019 16:08:16.572,2315
25/05/2019 16:08:16.576,2163
25/05/2019 16:08:16.580,2471
25/05/2019 16:08:16.584,2259
25/05/2019 16:08:16.588,2023
25/05/2019 16:08:16.592,1915
25/05/2019 16:08:16.596,2351
25/05/2019 16:08:16.600,2247
25/05/2019 16:08:16.604,2063
25/05/2019 16:08:16.608,1895
25/05/2019 16:08:16.612,2343
25/05/2019 16:08:16.616,2315
25/05/2019 16:08:16.620,2119
25/05/2019 16:08:16.624,1883
25/05/2019 16:08:16.628,2267
25/05/2019 16:08:16.632,2351
25/05/2019 16:08:16.636,2135
25/05/2019 16:08:16.640,1895
25/05/2019 16:08:16.644,2179
25/05/2019 16:08:16.648,2383
25/05/2019 16:08:16.652,2171
25/05/2019 16:08:16.656,1923
25/05/2019 16:08:16.660,2083
25/05/2019 16:08:16.664,2407
25/05/2019 16:08:16.668,2207
25/05/2019 16:08:16.672,1991
25/05/2019 16:08:16.676,2023
25/05/2019 16:08:16.680,2419
25/05/2019 16:08:16.684,2247
25/05/2019 16:08:16.688,2027
25/05/2019 16:08:16.692,1935
25/05/2019 16:08:16.696,2383
25/05/2019 16:08:16.700,2271
25/05/2019 16:08:16.704,2083
25/05/2019 16:08:16.708,1903
25/05/2019 16:08:16.712,2347
25/05/2019 16:08:16.716,2319
25/05/2019 16:08:16.720,2131
25/05/2019 16:08:16.724,1903
25/05/2019 16:08:16.728,2287
25/05/2019 16:08:16.732,2359
25/05/2019 16:08:16.736,2155
25/05/2019 16:08:16.740,1903
25/05/2019 16:08:16.744,2187
25/05/2019 16:08:16.748,2383
25/05/2019 16:08:16.752,2171
25/05/2019 16:08:16.756,1931
25/05/2019 16:08:16.760,2103
25/05/2019 16:08:16.764,2411
25/05/2019 16:08:16.768,2211
25/05/2019 16:08:16.772,1995
25/05/2019 16:08:16.776,2031
25/05/2019 16:08:16.780,2427
25/05/2019 16:08:16.784,2259
25/05/2019 16:08:16.788,2063
25/05/2019 16:08:16.792,1983
25/05/2019 16:08:16.796,2431
25/05/2019 16:08:16.800,2311
25/05/2019 16:08:16.804,2115
25/05/2019 16:08:16.808,1939
25/05/2019 16:08:16.812,2379
25/05/2019 16:08:16.816,2347
25/05/2019 16:08:16.820,2151
25/05/2019 16:08:16.824,1919
25/05/2019 16:08:16.828,2307
25/05/2019 16:08:16.832,2379
25/05/2019 16:08:16.836,2167
25/05/2019 16:08:16.840,1919
25/05/2019 16:08:16.844,2207
25/05/2019 16:08:16.848,2395
25/05/2019 16:08:16.852,2183
25/05/2019 16:08:16.856,1935
25/05/2019 16:08:16.860,2095
25/05/2019 16:08:16.864,2399
25/05/2019 16:08:16.868,2195
25/05/2019 16:08:16.872,1963
25/05/2019 16:08:16.876,2003
25/05/2019 16:08:16.880,2403
25/05/2019 16:08:16.884,2255
25/05/2019 16:08:16.888,2067
25/05/2019 16:08:16.892,1979
25/05/2019 16:08:16.896,2407
25/05/2019 16:08:16.900,2275
25/05/2019 16:08:16.904,2083
25/05/2019 16:08:16.908,1903
25/05/2019 16:08:16.912,2335
25/05/2019 16:08:16.916,2291
25/05/2019 16:08:16.920,2103
25/05/2019 16:08:16.924,1875
25/05/2019 16:08:16.928,2259
25/05/2019 16:08:16.932,2331
25/05/2019 16:08:16.936,2135
25/05/2019 16:08:16.940,1883
25/05/2019 16:08:16.944,2179
25/05/2019 16:08:16.948,2359
25/05/2019 16:08:16.952,2155
25/05/2019 16:08:16.956,1919
25/05/2019 16:08:16.960,2091
25/05/2019 16:08:16.964,2395
25/05/2019 16:08:16.968,2191
25/05/2019 16:08:16.972,1963
25/05/2019 16:08:16.976,2011
25/05/2019 16:08:16.980,2407
25/05/2019 16:08:16.984,2239
25/05/2019 16:08:16.988,2039
25/05/2019 16:08:16.992,1955
25/05/2019 16:08:16.996,2399
25/05/2019 16:08:17.000,2283
25/05/2019 16:08:17.004,2087
25/05/2019 16:08:17.008,1915
25/05/2019 16:08:17.012,2363
25/05/2019 16:08:17.016,2323
25/05/2019 16:08:17.020,2127
25/05/2019 16:08:17.024,1891
25/05/2019 16:08:17.028,2283
25/05/2019 16:08:17.032,2355
25/05/2019 16:08:17.036,2143
25/05/2019 16:08:17.040,1895
25/05/2019 16:08:17.044,2195
25/05/2019 16:08:17.048,2379
25/05/2019 16:08:17.052,2167
25/05/2019 16:08:17.056,1919
25/05/2019 16:08:17.060,2099
25/05/2019 16:08:17.064,2403
25/05/2019 16:08:17.068,2211
25/05/2019 16:08:17.072,1995
25/05/2019 16:08:17.076,2035
25/05/2019 16:08:17.080,2423
25/05/2019 16:08:17.084,2243
25/05/2019 16:08:17.088,2031
25/05/2019 16:08:17.092,1951
25/05/2019 16:08:17.096,2391
25/05/2019 16:08:17.100,2267
25/05/2019 16:08:17.104,2071
25/05/2019 16:08:17.108,1903
25/05/2019 16:08:17.112,2347
25/05/2019 16:08:17.116,2303
25/05/2019 16:08:17.120,2107
25/05/2019 16:08:17.124,1887
25/05/2019 16:08:17.128,2279
25/05/2019 16:08:17.132,2343
25/05/2019 16:08:17.136,2139
25/05/2019 16:08:17.140,1891
25/05/2019 16:08:17.144,2191
25/05/2019 16:08:17.148,2379
25/05/2019 16:08:17.152,2163
25/05/2019 16:08:17.156,1919
25/05/2019 16:08:17.160,2103
25/05/2019 16:08:17.164,2395
25/05/2019 16:08:17.168,2187
25/05/2019 16:08:17.172,1963
25/05/2019 16:08:17.176,2015
25/05/2019 16:08:17.180,2411
25/05/2019 16:08:17.184,2231
25/05/2019 16:08:17.188,2027
25/05/2019 16:08:17.192,1955
25/05/2019 16:08:17.196,2391
25/05/2019 16:08:17.200,2267
25/05/2019 16:08:17.204,2075
25/05/2019 16:08:17.208,1903
25/05/2019 16:08:17.212,2355
25/05/2019 16:08:17.216,2307
25/05/2019 16:08:17.220,2107
25/05/2019 16:08:17.224,1883
25/05/2019 16:08:17.228,2279
25/05/2019 16:08:17.232,2339
25/05/2019 16:08:17.236,2139
25/05/2019 16:08:17.240,1887
25/05/2019 16:08:17.244,2187
25/05/2019 16:08:17.248,2371
25/05/2019 16:08:17.252,2155
25/05/2019 16:08:17.256,1911
25/05/2019 16:08:17.260,2099
25/05/2019 16:08:17.264,2395
25/05/2019 16:08:17.268,2191
25/05/2019 16:08:17.272,1967
25/05/2019 16:08:17.276,2015
25/05/2019 16:08:17.280,2407
25/05/2019 16:08:17.284,2227
25/05/2019 16:08:17.288,2015
25/05/2019 16:08:17.292,1939
25/05/2019 16:08:17.296,2379
25/05/2019 16:08:17.300,2259
25/05/2019 16:08:17.304,2075
25/05/2019 16:08:17.308,1911
25/05/2019 16:08:17.312,2363
25/05/2019 16:08:17.316,2335
25/05/2019 16:08:17.320,2187
25/05/2019 16:08:17.324,1983
25/05/2019 16:08:17.328,2371
25/05/2019 16:08:17.332,2415
25/05/2019 16:08:17.336,2219
25/05/2019 16:08:17.340,1975
25/05/2019 16:08:17.344,2283
25/05/2019 16:08:17.348,2459
25/05/2019 16:08:17.352,2235
25/05/2019 16:08:17.356,1971
25/05/2019 16:08:17.360,2151
25/05/2019 16:08:17.364,2431
25/05/2019 16:08:17.368,2207
25/05/2019 16:08:17.372,1963
25/05/2019 16:08:17.376,2011
25/05/2019 16:08:17.380,2383
25/05/2019 16:08:17.384,2187
25/05/2019 16:08:17.388,1975
25/05/2019 16:08:17.392,1903
25/05/2019 16:08:17.396,2351
25/05/2019 16:08:17.400,2223
25/05/2019 16:08:17.404,2023
25/05/2019 16:08:17.408,1859
25/05/2019 16:08:17.412,2311
25/05/2019 16:08:17.416,2259
25/05/2019 16:08:17.420,2067
25/05/2019 16:08:17.424,1863
25/05/2019 16:08:17.428,2267
25/05/2019 16:08:17.432,2295
25/05/2019 16:08:17.436,2027
25/05/2019 16:08:17.440,1675
25/05/2019 16:08:17.444,1887
25/05/2019 16:08:17.448,1999
25/05/2019 16:08:17.452,1775
25/05/2019 16:08:17.456,1563
25/05/2019 16:08:17.460,1883
25/05/2019 16:08:17.464,2503
25/05/2019 16:08:17.468,2639
25/05/2019 16:08:17.472,2475
25/05/2019 16:08:17.476,2367
25/05/2019 16:08:17.480,2567
25/05/2019 16:08:17.484,2271
25/05/2019 16:08:17.488,2007
25/05/2019 16:08:17.492,1915
25/05/2019 16:08:17.496,2327
25/05/2019 16:08:17.500,2203
25/05/2019 16:08:17.504,2027
25/05/2019 16:08:17.508,1887
25/05/2019 16:08:17.512,2331
25/05/2019 16:08:17.516,2287
25/05/2019 16:08:17.520,2107
25/05/2019 16:08:17.524,1895
25/05/2019 16:08:17.528,2287
25/05/2019 16:08:17.532,2331
25/05/2019 16:08:17.536,2131
25/05/2019 16:08:17.540,1895
25/05/2019 16:08:17.544,2191
25/05/2019 16:08:17.548,2351
25/05/2019 16:08:17.552,2143
25/05/2019 16:08:17.556,1907
25/05/2019 16:08:17.560,2071
25/05/2019 16:08:17.564,2335
25/05/2019 16:08:17.568,2143
25/05/2019 16:08:17.572,1943
25/05/2019 16:08:17.576,2011
25/05/2019 16:08:17.580,2383
25/05/2019 16:08:17.584,2211
25/05/2019 16:08:17.588,2019
25/05/2019 16:08:17.592,1975
25/05/2019 16:08:17.596,2399
25/05/2019 16:08:17.600,2275
25/05/2019 16:08:17.604,2099
25/05/2019 16:08:17.608,1939
25/05/2019 16:08:17.612,2363
25/05/2019 16:08:17.616,2299
25/05/2019 16:08:17.620,2107
25/05/2019 16:08:17.624,1899
25/05/2019 16:08:17.628,2291
25/05/2019 16:08:17.632,2335
25/05/2019 16:08:17.636,2143
25/05/2019 16:08:17.640,1907
25/05/2019 16:08:17.644,2203
25/05/2019 16:08:17.648,2355
25/05/2019 16:08:17.652,2155
25/05/2019 16:08:17.656,1927
25/05/2019 16:08:17.660,2115
25/05/2019 16:08:17.664,2383
25/05/2019 16:08:17.668,2187
25/05/2019 16:08:17.672,1967
25/05/2019 16:08:17.676,2039
25/05/2019 16:08:17.680,2399
25/05/2019 16:08:17.684,2227
25/05/2019 16:08:17.688,2031
25/05/2019 16:08:17.692,1971
25/05/2019 16:08:17.696,2391
25/05/2019 16:08:17.700,2259
25/05/2019 16:08:17.704,2079
25/05/2019 16:08:17.708,1931
25/05/2019 16:08:17.712,2355
25/05/2019 16:08:17.716,2295
25/05/2019 16:08:17.720,2115
25/05/2019 16:08:17.724,1911
25/05/2019 16:08:17.728,2299
25/05/2019 16:08:17.732,2339
25/05/2019 16:08:17.736,2155
25/05/2019 16:08:17.740,1927
25/05/2019 16:08:17.744,2231
25/05/2019 16:08:17.748,2387
25/05/2019 16:08:17.752,2187
25/05/2019 16:08:17.756,1951
25/05/2019 16:08:17.760,2139
25/05/2019 16:08:17.764,2399
25/05/2019 16:08:17.768,2191
25/05/2019 16:08:17.772,1967
25/05/2019 16:08:17.776,2019
25/05/2019 16:08:17.780,2371
25/05/2019 16:08:17.784,2191
25/05/2019 16:08:17.788,1999
25/05/2019 16:08:17.792,1943
25/05/2019 16:08:17.796,2367
25/05/2019 16:08:17.800,2235
25/05/2019 16:08:17.804,2047
25/05/2019 16:08:17.808,1899
25/05/2019 16:08:17.812,2327
25/05/2019 16:08:17.816,2267
25/05/2019 16:08:17.820,2079
25/05/2019 16:08:17.824,1871
25/05/2019 16:08:17.828,2263
25/05/2019 16:08:17.832,2311
25/05/2019 16:08:17.836,2111
25/05/2019 16:08:17.840,1879
25/05/2019 16:08:17.844,2191
25/05/2019 16:08:17.848,2351
25/05/2019 16:08:17.852,2151
25/05/2019 16:08:17.856,1911
25/05/2019 16:08:17.860,2103
25/05/2019 16:08:17.864,2375
25/05/2019 16:08:17.868,2171
25/05/2019 16:08:17.872,1955
25/05/2019 16:08:17.876,2019
25/05/2019 16:08:17.880,2379
25/05/2019 16:08:17.884,2203
25/05/2019 16:08:17.888,2007
25/05/2019 16:08:17.892,1955
25/05/2019 16:08:17.896,2379
25/05/2019 16:08:17.900,2239
25/05/2019 16:08:17.904,2055
25/05/2019 16:08:17.908,1895
25/05/2019 16:08:17.912,2327
25/05/2019 16:08:17.916,2271
25/05/2019 16:08:17.920,2087
25/05/2019 16:08:17.924,1879
25/05/2019 16:08:17.928,2275
25/05/2019 16:08:17.932,2319
25/05/2019 16:08:17.936,2119
25/05/2019 16:08:17.940,1879
25/05/2019 16:08:17.944,2191
25/05/2019 16:08:17.948,2347
25/05/2019 16:08:17.952,2147
25/05/2019 16:08:17.956,1915
25/05/2019 16:08:17.960,2111
25/05/2019 16:08:17.964,2375
25/05/2019 16:08:17.968,2175
25/05/2019 16:08:17.972,1959
25/05/2019 16:08:17.976,2031
25/05/2019 16:08:17.980,2399
25/05/2019 16:08:17.984,2219
25/05/2019 16:08:17.988,2019
25/05/2019 16:08:17.992,1963
25/05/2019 16:08:17.996,2383
25/05/2019 16:08:18.000,2247
25/05/2019 16:08:18.004,2059
25/05/2019 16:08:18.008,1911
25/05/2019 16:08:18.012,2343
25/05/2019 16:08:18.016,2283
25/05/2019 16:08:18.020,2095
25/05/2019 16:08:18.024,1887
25/05/2019 16:08:18.028,2279
25/05/2019 16:08:18.032,2319
25/05/2019 16:08:18.036,2119
25/05/2019 16:08:18.040,1883
25/05/2019 16:08:18.044,2195
25/05/2019 16:08:18.048,2351
25/05/2019 16:08:18.052,2147
25/05/2019 16:08:18.056,1911
25/05/2019 16:08:18.060,2107
25/05/2019 16:08:18.064,2375
25/05/2019 16:08:18.068,2171
25/05/2019 16:08:18.072,1951
25/05/2019 16:08:18.076,2019
25/05/2019 16:08:18.080,2387
25/05/2019 16:08:18.084,2207
25/05/2019 16:08:18.088,2007
25/05/2019 16:08:18.092,1951
25/05/2019 16:08:18.096,2375
25/05/2019 16:08:18.100,2243
25/05/2019 16:08:18.104,2051
25/05/2019 16:08:18.108,1895
25/05/2019 16:08:18.112,2331
25/05/2019 16:08:18.116,2279
25/05/2019 16:08:18.120,2091
25/05/2019 16:08:18.124,1875
25/05/2019 16:08:18.128,2267
25/05/2019 16:08:18.132,2311
25/05/2019 16:08:18.136,2119
25/05/2019 16:08:18.140,1879
25/05/2019 16:08:18.144,2199
25/05/2019 16:08:18.148,2351
25/05/2019 16:08:18.152,2139
25/05/2019 16:08:18.156,1903
25/05/2019 16:08:18.160,2103
25/05/2019 16:08:18.164,2379
25/05/2019 16:08:18.168,2167
25/05/2019 16:08:18.172,1943
25/05/2019 16:08:18.176,2007
25/05/2019 16:08:18.180,2383
25/05/2019 16:08:18.184,2207
25/05/2019 16:08:18.188,1999
25/05/2019 16:08:18.192,1943
25/05/2019 16:08:18.196,2367
25/05/2019 16:08:18.200,2231
25/05/2019 16:08:18.204,2043
25/05/2019 16:08:18.208,1891
25/05/2019 16:08:18.212,2335
25/05/2019 16:08:18.216,2279
25/05/2019 16:08:18.220,2091
25/05/2019 16:08:18.224,1883
25/05/2019 16:08:18.228,2291
25/05/2019 16:08:18.232,2339
25/05/2019 16:08:18.236,2127
25/05/2019 16:08:18.240,1871
25/05/2019 16:08:18.244,2187
25/05/2019 16:08:18.248,2367
25/05/2019 16:08:18.252,2163
25/05/2019 16:08:18.256,1915
25/05/2019 16:08:18.260,2111
25/05/2019 16:08:18.264,2395
25/05/2019 16:08:18.268,2175
25/05/2019 16:08:18.272,1951
25/05/2019 16:08:18.276,2011
25/05/2019 16:08:18.280,2391
25/05/2019 16:08:18.284,2207
25/05/2019 16:08:18.288,1995
25/05/2019 16:08:18.292,1943
25/05/2019 16:08:18.296,2383
25/05/2019 16:08:18.300,2247
25/05/2019 16:08:18.304,2043
25/05/2019 16:08:18.308,1883
25/05/2019 16:08:18.312,2335
25/05/2019 16:08:18.316,2283
25/05/2019 16:08:18.320,2087
25/05/2019 16:08:18.324,1859
25/05/2019 16:08:18.328,2271
25/05/2019 16:08:18.332,2327
25/05/2019 16:08:18.336,2099
25/05/2019 16:08:18.340,1787
25/05/2019 16:08:18.344,2007
25/05/2019 16:08:18.348,2083
25/05/2019 16:08:18.352,1815
25/05/2019 16:08:18.356,1535
25/05/2019 16:08:18.360,1759
25/05/2019 16:08:18.364,2199
25/05/2019 16:08:18.368,2299
25/05/2019 16:08:18.372,2415
25/05/2019 16:08:18.376,2579
25/05/2019 16:08:18.380,2799
25/05/2019 16:08:18.384,2427
25/05/2019 16:08:18.388,2087
25/05/2019 16:08:18.392,1939
25/05/2019 16:08:18.396,2331
25/05/2019 16:08:18.400,2191
25/05/2019 16:08:18.404,1999
25/05/2019 16:08:18.408,1839
25/05/2019 16:08:18.412,2271
25/05/2019 16:08:18.416,2183
25/05/2019 16:08:18.420,1975
25/05/2019 16:08:18.424,1771
25/05/2019 16:08:18.428,2187
25/05/2019 16:08:18.432,2263
25/05/2019 16:08:18.436,2087
25/05/2019 16:08:18.440,1871
25/05/2019 16:08:18.444,2195
25/05/2019 16:08:18.448,2363
25/05/2019 16:08:18.452,2167
25/05/2019 16:08:18.456,1923
25/05/2019 16:08:18.460,2111
25/05/2019 16:08:18.464,2383
25/05/2019 16:08:18.468,2187
25/05/2019 16:08:18.472,1967
25/05/2019 16:08:18.476,2031
25/05/2019 16:08:18.480,2403
25/05/2019 16:08:18.484,2227
25/05/2019 16:08:18.488,2027
25/05/2019 16:08:18.492,1963
25/05/2019 16:08:18.496,2379
25/05/2019 16:08:18.500,2255
25/05/2019 16:08:18.504,2067
25/05/2019 16:08:18.508,1911
25/05/2019 16:08:18.512,2339
25/05/2019 16:08:18.516,2279
25/05/2019 16:08:18.520,2087
25/05/2019 16:08:18.524,1867
25/05/2019 16:08:18.528,2255
25/05/2019 16:08:18.532,2295
25/05/2019 16:08:18.536,2095
25/05/2019 16:08:18.540,1867
25/05/2019 16:08:18.544,2175
25/05/2019 16:08:18.548,2347
25/05/2019 16:08:18.552,2147
25/05/2019 16:08:18.556,1907
25/05/2019 16:08:18.560,2095
25/05/2019 16:08:18.564,2375
25/05/2019 16:08:18.568,2175
25/05/2019 16:08:18.572,1959
25/05/2019 16:08:18.576,2011
25/05/2019 16:08:18.580,2387
25/05/2019 16:08:18.584,2215
25/05/2019 16:08:18.588,2019
25/05/2019 16:08:18.592,1963
25/05/2019 16:08:18.596,2391
25/05/2019 16:08:18.600,2263
25/05/2019 16:08:18.604,2079
25/05/2019 16:08:18.608,1915
25/05/2019 16:08:18.612,2351
25/05/2019 16:08:18.616,2295
25/05/2019 16:08:18.620,2103
25/05/2019 16:08:18.624,1891
25/05/2019 16:08:18.628,2287
25/05/2019 16:08:18.632,2343
25/05/2019 16:08:18.636,2143
25/05/2019 16:08:18.640,1903
25/05/2019 16:08:18.644,2207
25/05/2019 16:08:18.648,2379
25/05/2019 16:08:18.652,2163
25/05/2019 16:08:18.656,1919
25/05/2019 16:08:18.660,2103
25/05/2019 16:08:18.664,2375
25/05/2019 16:08:18.668,2175
25/05/2019 16:08:18.672,1959
25/05/2019 16:08:18.676,2019
25/05/2019 16:08:18.680,2395
25/05/2019 16:08:18.684,2199
25/05/2019 16:08:18.688,1987
25/05/2019 16:08:18.692,1915
25/05/2019 16:08:18.696,2347
25/05/2019 16:08:18.700,2219
25/05/2019 16:08:18.704,2035
25/05/2019 16:08:18.708,1871
25/05/2019 16:08:18.712,2307
25/05/2019 16:08:18.716,2255
25/05/2019 16:08:18.720,2067
25/05/2019 16:08:18.724,1847
25/05/2019 16:08:18.728,2239
25/05/2019 16:08:18.732,2291
25/05/2019 16:08:18.736,2091
25/05/2019 16:08:18.740,1859
25/05/2019 16:08:18.744,2159
25/05/2019 16:08:18.748,2339
25/05/2019 16:08:18.752,2131
25/05/2019 16:08:18.756,1887
25/05/2019 16:08:18.760,2067
25/05/2019 16:08:18.764,2359
25/05/2019 16:08:18.768,2167
25/05/2019 16:08:18.772,1955
25/05/2019 16:08:18.776,2011
25/05/2019 16:08:18.780,2383
25/05/2019 16:08:18.784,2207
25/05/2019 16:08:18.788,1999
25/05/2019 16:08:18.792,1939
25/05/2019 16:08:18.796,2363
25/05/2019 16:08:18.800,2231
25/05/2019 16:08:18.804,2047
25/05/2019 16:08:18.808,1883
25/05/2019 16:08:18.812,2311
25/05/2019 16:08:18.816,2267
25/05/2019 16:08:18.820,2083
25/05/2019 16:08:18.824,1867
25/05/2019 16:08:18.828,2243
25/05/2019 16:08:18.832,2295
25/05/2019 16:08:18.836,2103
25/05/2019 16:08:18.840,1863
25/05/2019 16:08:18.844,2163
25/05/2019 16:08:18.848,2339
25/05/2019 16:08:18.852,2143
25/05/2019 16:08:18.856,1911
25/05/2019 16:08:18.860,2091
25/05/2019 16:08:18.864,2383
25/05/2019 16:08:18.868,2179
25/05/2019 16:08:18.872,1955
25/05/2019 16:08:18.876,1999
25/05/2019 16:08:18.880,2379
25/05/2019 16:08:18.884,2195
25/05/2019 16:08:18.888,1999
25/05/2019 16:08:18.892,1931
25/05/2019 16:08:18.896,2355
25/05/2019 16:08:18.900,2227
25/05/2019 16:08:18.904,2039
25/05/2019 16:08:18.908,1875
25/05/2019 16:08:18.912,2311
25/05/2019 16:08:18.916,2267
25/05/2019 16:08:18.920,2079
25/05/2019 16:08:18.924,1867
25/05/2019 16:08:18.928,2255
25/05/2019 16:08:18.932,2299
25/05/2019 16:08:18.936,2103
25/05/2019 16:08:18.940,1875
25/05/2019 16:08:18.944,2171
25/05/2019 16:08:18.948,2347
25/05/2019 16:08:18.952,2139
25/05/2019 16:08:18.956,1903
25/05/2019 16:08:18.960,2079
25/05/2019 16:08:18.964,2363
25/05/2019 16:08:18.968,2159
25/05/2019 16:08:18.972,1943
25/05/2019 16:08:18.976,1999
25/05/2019 16:08:18.980,2375
25/05/2019 16:08:18.984,2203
25/05/2019 16:08:18.988,2003
25/05/2019 16:08:18.992,1927
25/05/2019 16:08:18.996,2351
25/05/2019 16:08:19.000,2231
25/05/2019 16:08:19.004,2043
25/05/2019 16:08:19.008,1871
25/05/2019 16:08:19.012,2303
25/05/2019 16:08:19.016,2279
25/05/2019 16:08:19.020,2091
25/05/2019 16:08:19.024,1871
25/05/2019 16:08:19.028,2247
25/05/2019 16:08:19.032,2311
25/05/2019 16:08:19.036,2119
25/05/2019 16:08:19.040,1875
25/05/2019 16:08:19.044,2155
25/05/2019 16:08:19.048,2331
25/05/2019 16:08:19.052,2127
25/05/2019 16:08:19.056,1891
25/05/2019 16:08:19.060,2063
25/05/2019 16:08:19.064,2355
25/05/2019 16:08:19.068,2163
25/05/2019 16:08:19.072,1947
25/05/2019 16:08:19.076,1987
25/05/2019 16:08:19.080,2359
25/05/2019 16:08:19.084,2187
25/05/2019 16:08:19.088,1999
25/05/2019 16:08:19.092,1927
25/05/2019 16:08:19.096,2359
25/05/2019 16:08:19.100,2235
25/05/2019 16:08:19.104,2051
25/05/2019 16:08:19.108,1887
25/05/2019 16:08:19.112,2311
25/05/2019 16:08:19.116,2275
25/05/2019 16:08:19.120,2091
25/05/2019 16:08:19.124,1875
25/05/2019 16:08:19.128,2251
25/05/2019 16:08:19.132,2311
25/05/2019 16:08:19.136,2115
25/05/2019 16:08:19.140,1871
25/05/2019 16:08:19.144,2159
25/05/2019 16:08:19.148,2335
25/05/2019 16:08:19.152,2111
25/05/2019 16:08:19.156,1887
25/05/2019 16:08:19.160,2055
25/05/2019 16:08:19.164,2347
25/05/2019 16:08:19.168,2163
25/05/2019 16:08:19.172,1955
25/05/2019 16:08:19.176,1987
25/05/2019 16:08:19.180,2359
25/05/2019 16:08:19.184,2179
25/05/2019 16:08:19.188,1983
25/05/2019 16:08:19.192,1931
25/05/2019 16:08:19.196,2355
25/05/2019 16:08:19.200,2191
25/05/2019 16:08:19.204,1943
25/05/2019 16:08:19.208,1683
25/05/2019 16:08:19.212,2015
25/05/2019 16:08:19.216,1935
25/05/2019 16:08:19.220,1743
25/05/2019 16:08:19.224,1607
25/05/2019 16:08:19.228,2187
25/05/2019 16:08:19.232,2595
25/05/2019 16:08:19.236,2679
25/05/2019 16:08:19.240,2419
25/05/2019 16:08:19.244,2515
25/05/2019 16:08:19.248,2515
25/05/2019 16:08:19.252,2199
25/05/2019 16:08:19.256,1895
25/05/2019 16:08:19.260,2031
25/05/2019 16:08:19.264,2311
25/05/2019 16:08:19.268,2107
25/05/2019 16:08:19.272,1895
25/05/2019 16:08:19.276,1943
25/05/2019 16:08:19.280,2331
25/05/2019 16:08:19.284,2175
25/05/2019 16:08:19.288,1987
25/05/2019 16:08:19.292,1907
25/05/2019 16:08:19.296,2323
25/05/2019 16:08:19.300,2207
25/05/2019 16:08:19.304,2027
25/05/2019 16:08:19.308,1855
25/05/2019 16:08:19.312,2271
25/05/2019 16:08:19.316,2243
25/05/2019 16:08:19.320,2051
25/05/2019 16:08:19.324,1827
25/05/2019 16:08:19.328,2195
25/05/2019 16:08:19.332,2287
25/05/2019 16:08:19.336,2095
25/05/2019 16:08:19.340,1863
25/05/2019 16:08:19.344,2139
25/05/2019 16:08:19.348,2327
25/05/2019 16:08:19.352,2139
25/05/2019 16:08:19.356,1915
25/05/2019 16:08:19.360,2075
25/05/2019 16:08:19.364,2359
25/05/2019 16:08:19.368,2171
25/05/2019 16:08:19.372,1971
25/05/2019 16:08:19.376,1995
25/05/2019 16:08:19.380,2347
25/05/2019 16:08:19.384,2175
25/05/2019 16:08:19.388,1979
25/05/2019 16:08:19.392,1899
25/05/2019 16:08:19.396,2323
25/05/2019 16:08:19.400,2215
25/05/2019 16:08:19.404,2047
25/05/2019 16:08:19.408,1887
25/05/2019 16:08:19.412,2303
25/05/2019 16:08:19.416,2271
25/05/2019 16:08:19.420,2087
25/05/2019 16:08:19.424,1867
25/05/2019 16:08:19.428,2231
25/05/2019 16:08:19.432,2311
25/05/2019 16:08:19.436,2127
25/05/2019 16:08:19.440,1887
25/05/2019 16:08:19.444,2163
25/05/2019 16:08:19.448,2363
25/05/2019 16:08:19.452,2163
25/05/2019 16:08:19.456,1935
25/05/2019 16:08:19.460,2087
25/05/2019 16:08:19.464,2375
25/05/2019 16:08:19.468,2179
25/05/2019 16:08:19.472,1963
25/05/2019 16:08:19.476,1991
25/05/2019 16:08:19.480,2371
25/05/2019 16:08:19.484,2211
25/05/2019 16:08:19.488,2019
25/05/2019 16:08:19.492,1939
25/05/2019 16:08:19.496,2371
25/05/2019 16:08:19.500,2263
25/05/2019 16:08:19.504,2075
25/05/2019 16:08:19.508,1911
25/05/2019 16:08:19.512,2323
25/05/2019 16:08:19.516,2291
25/05/2019 16:08:19.520,2083
25/05/2019 16:08:19.524,1823
25/05/2019 16:08:19.528,2175
25/05/2019 16:08:19.532,2263
25/05/2019 16:08:19.536,2087
25/05/2019 16:08:19.540,1875
25/05/2019 16:08:19.544,2139
25/05/2019 16:08:19.548,2327
25/05/2019 16:08:19.552,2131
25/05/2019 16:08:19.556,1911
25/05/2019 16:08:19.560,2055
25/05/2019 16:08:19.564,2343
25/05/2019 16:08:19.568,2151
25/05/2019 16:08:19.572,1955
25/05/2019 16:08:19.576,1991
25/05/2019 16:08:19.580,2363
25/05/2019 16:08:19.584,2183
25/05/2019 16:08:19.588,1991
25/05/2019 16:08:19.592,1903
25/05/2019 16:08:19.596,2323
25/05/2019 16:08:19.600,2211
25/05/2019 16:08:19.604,2043
25/05/2019 16:08:19.608,1879
25/05/2019 16:08:19.612,2291
25/05/2019 16:08:19.616,2255
25/05/2019 16:08:19.620,2067
25/05/2019 16:08:19.624,1847
25/05/2019 16:08:19.628,2211
25/05/2019 16:08:19.632,2283
25/05/2019 16:08:19.636,2091
25/05/2019 16:08:19.640,1871
25/05/2019 16:08:19.644,2135
25/05/2019 16:08:19.648,2339
25/05/2019 16:08:19.652,2139
25/05/2019 16:08:19.656,1907
25/05/2019 16:08:19.660,2047
25/05/2019 16:08:19.664,2347
25/05/2019 16:08:19.668,2167
25/05/2019 16:08:19.672,1951
25/05/2019 16:08:19.676,1967
25/05/2019 16:08:19.680,2355
25/05/2019 16:08:19.684,2195
25/05/2019 16:08:19.688,2007
25/05/2019 16:08:19.692,1907
25/05/2019 16:08:19.696,2323
25/05/2019 16:08:19.700,2223
25/05/2019 16:08:19.704,2063
25/05/2019 16:08:19.708,1891
25/05/2019 16:08:19.712,2295
25/05/2019 16:08:19.716,2263
25/05/2019 16:08:19.720,2083
25/05/2019 16:08:19.724,1867
25/05/2019 16:08:19.728,2211
25/05/2019 16:08:19.732,2287
25/05/2019 16:08:19.736,2103
25/05/2019 16:08:19.740,1883
25/05/2019 16:08:19.744,2139
25/05/2019 16:08:19.748,2327
25/05/2019 16:08:19.752,2119
25/05/2019 16:08:19.756,1915
25/05/2019 16:08:19.760,2063
25/05/2019 16:08:19.764,2359
25/05/2019 16:08:19.768,2159
25/05/2019 16:08:19.772,1959
25/05/2019 16:08:19.776,1979
25/05/2019 16:08:19.780,2355
25/05/2019 16:08:19.784,2191
25/05/2019 16:08:19.788,2019
25/05/2019 16:08:19.792,1931
25/05/2019 16:08:19.796,2331
25/05/2019 16:08:19.800,2223
25/05/2019 16:08:19.804,2047
25/05/2019 16:08:19.808,1867
25/05/2019 16:08:19.812,2287
25/05/2019 16:08:19.816,2279
25/05/2019 16:08:19.820,2107
25/05/2019 16:08:19.824,1875
25/05/2019 16:08:19.828,2207
25/05/2019 16:08:19.832,2303
25/05/2019 16:08:19.836,2111
25/05/2019 16:08:19.840,1879
25/05/2019 16:08:19.844,2123
25/05/2019 16:08:19.848,2331
25/05/2019 16:08:19.852,2147
25/05/2019 16:08:19.856,1931
25/05/2019 16:08:19.860,2055
25/05/2019 16:08:19.864,2351
25/05/2019 16:08:19.868,2155
25/05/2019 16:08:19.872,1975
25/05/2019 16:08:19.876,1991
25/05/2019 16:08:19.880,2347
25/05/2019 16:08:19.884,2179
25/05/2019 16:08:19.888,2019
25/05/2019 16:08:19.892,1927
25/05/2019 16:08:19.896,2327
25/05/2019 16:08:19.900,2219
25/05/2019 16:08:19.904,2055
25/05/2019 16:08:19.908,1883
25/05/2019 16:08:19.912,2279
25/05/2019 16:08:19.916,2255
25/05/2019 16:08:19.920,2091
25/05/2019 16:08:19.924,1875
25/05/2019 16:08:19.928,2211
25/05/2019 16:08:19.932,2299
25/05/2019 16:08:19.936,2103
25/05/2019 16:08:19.940,1875
25/05/2019 16:08:19.944,2103
25/05/2019 16:08:19.948,2315
25/05/2019 16:08:19.952,2119
25/05/2019 16:08:19.956,1903
25/05/2019 16:08:19.960,2027
25/05/2019 16:08:19.964,2339
25/05/2019 16:08:19.968,2155
25/05/2019 16:08:19.972,1959
25/05/2019 16:08:19.976,1951
25/05/2019 16:08:19.980,2339
25/05/2019 16:08:19.984,2207
25/05/2019 16:08:19.988,2015
25/05/2019 16:08:19.992,1919
25/05/2019 16:08:19.996,2331
25/05/2019 16:08:20.000,2203
25/05/2019 16:08:20.004,1959
25/05/2019 16:08:20.008,1699
25/05/2019 16:08:20.012,2003
25/05/2019 16:08:20.016,1951
25/05/2019 16:08:20.020,1775
25/05/2019 16:08:20.024,1647
25/05/2019 16:08:20.028,2139
25/05/2019 16:08:20.032,2487
25/05/2019 16:08:20.036,2607
25/05/2019 16:08:20.040,2407
25/05/2019 16:08:20.044,2471
25/05/2019 16:08:20.048,2507
25/05/2019 16:08:20.052,2207
25/05/2019 16:08:20.056,1935
25/05/2019 16:08:20.060,2007
25/05/2019 16:08:20.064,2299
25/05/2019 16:08:20.068,2111
25/05/2019 16:08:20.072,1931
25/05/2019 16:08:20.076,1923
25/05/2019 16:08:20.080,2299
25/05/2019 16:08:20.084,2167
25/05/2019 16:08:20.088,1995
25/05/2019 16:08:20.092,1879
25/05/2019 16:08:20.096,2279
25/05/2019 16:08:20.100,2203
25/05/2019 16:08:20.104,2031
25/05/2019 16:08:20.108,1847
25/05/2019 16:08:20.112,2243
25/05/2019 16:08:20.116,2247
25/05/2019 16:08:20.120,2079
25/05/2019 16:08:20.124,1863
25/05/2019 16:08:20.128,2191
25/05/2019 16:08:20.132,2303
25/05/2019 16:08:20.136,2107
25/05/2019 16:08:20.140,1891
25/05/2019 16:08:20.144,2111
25/05/2019 16:08:20.148,2323
25/05/2019 16:08:20.152,2135
25/05/2019 16:08:20.156,1931
25/05/2019 16:08:20.160,2039
25/05/2019 16:08:20.164,2347
25/05/2019 16:08:20.168,2155
25/05/2019 16:08:20.172,1963
25/05/2019 16:08:20.176,1955
25/05/2019 16:08:20.180,2339
25/05/2019 16:08:20.184,2191
25/05/2019 16:08:20.188,2003
25/05/2019 16:08:20.192,1891
25/05/2019 16:08:20.196,2303
25/05/2019 16:08:20.200,2227
25/05/2019 16:08:20.204,2043
25/05/2019 16:08:20.208,1859
25/05/2019 16:08:20.212,2255
25/05/2019 16:08:20.216,2263
25/05/2019 16:08:20.220,2079
25/05/2019 16:08:20.224,1851
25/05/2019 16:08:20.228,2171
25/05/2019 16:08:20.232,2291
25/05/2019 16:08:20.236,2115
25/05/2019 16:08:20.240,1891
25/05/2019 16:08:20.244,2107
25/05/2019 16:08:20.248,2327
25/05/2019 16:08:20.252,2131
25/05/2019 16:08:20.256,1927
25/05/2019 16:08:20.260,2035
25/05/2019 16:08:20.264,2351
25/05/2019 16:08:20.268,2179
25/05/2019 16:08:20.272,1991
25/05/2019 16:08:20.276,1971
25/05/2019 16:08:20.280,2339
25/05/2019 16:08:20.284,2207
25/05/2019 16:08:20.288,2051
25/05/2019 16:08:20.292,1939
25/05/2019 16:08:20.296,2351
25/05/2019 16:08:20.300,2263
25/05/2019 16:08:20.304,2095
25/05/2019 16:08:20.308,1903
25/05/2019 16:08:20.312,2275
25/05/2019 16:08:20.316,2283
25/05/2019 16:08:20.320,2103
25/05/2019 16:08:20.324,1871
25/05/2019 16:08:20.328,2183
25/05/2019 16:08:20.332,2291
25/05/2019 16:08:20.336,2103
25/05/2019 16:08:20.340,1871
25/05/2019 16:08:20.344,2079
25/05/2019 16:08:20.348,2311
25/05/2019 16:08:20.352,2123
25/05/2019 16:08:20.356,1895
25/05/2019 16:08:20.360,1991
25/05/2019 16:08:20.364,2331
25/05/2019 16:08:20.368,2171
25/05/2019 16:08:20.372,1983
25/05/2019 16:08:20.376,1955
25/05/2019 16:08:20.380,2335
25/05/2019 16:08:20.384,2183
25/05/2019 16:08:20.388,2007
25/05/2019 16:08:20.392,1883
25/05/2019 16:08:20.396,2287
25/05/2019 16:08:20.400,2211
25/05/2019 16:08:20.404,2047
25/05/2019 16:08:20.408,1871
25/05/2019 16:08:20.412,2255
25/05/2019 16:08:20.416,2271
25/05/2019 16:08:20.420,2087
25/05/2019 16:08:20.424,1863
25/05/2019 16:08:20.428,2171
25/05/2019 16:08:20.432,2295
25/05/2019 16:08:20.436,2095
25/05/2019 16:08:20.440,1875
25/05/2019 16:08:20.444,2095
25/05/2019 16:08:20.448,2323
25/05/2019 16:08:20.452,2135
25/05/2019 16:08:20.456,1923
25/05/2019 16:08:20.460,2007
25/05/2019 16:08:20.464,2339
25/05/2019 16:08:20.468,2159
25/05/2019 16:08:20.472,1967
25/05/2019 16:08:20.476,1943
25/05/2019 16:08:20.480,2335
25/05/2019 16:08:20.484,2195
25/05/2019 16:08:20.488,2015
25/05/2019 16:08:20.492,1895
25/05/2019 16:08:20.496,2303
25/05/2019 16:08:20.500,2235
25/05/2019 16:08:20.504,2063
25/05/2019 16:08:20.508,1867
25/05/2019 16:08:20.512,2243
25/05/2019 16:08:20.516,2267
25/05/2019 16:08:20.520,2087
25/05/2019 16:08:20.524,1863
25/05/2019 16:08:20.528,2167
25/05/2019 16:08:20.532,2299
25/05/2019 16:08:20.536,2111
25/05/2019 16:08:20.540,1879
25/05/2019 16:08:20.544,2083
25/05/2019 16:08:20.548,2315
25/05/2019 16:08:20.552,2127
25/05/2019 16:08:20.556,1927
25/05/2019 16:08:20.560,2007
25/05/2019 16:08:20.564,2339
25/05/2019 16:08:20.568,2155
25/05/2019 16:08:20.572,1967
25/05/2019 16:08:20.576,1939
25/05/2019 16:08:20.580,2335
25/05/2019 16:08:20.584,2199
25/05/2019 16:08:20.588,2023
25/05/2019 16:08:20.592,1887
25/05/2019 16:08:20.596,2295
25/05/2019 16:08:20.600,2227
25/05/2019 16:08:20.604,2063
25/05/2019 16:08:20.608,1867
25/05/2019 16:08:20.612,2247
25/05/2019 16:08:20.616,2267
25/05/2019 16:08:20.620,2071
25/05/2019 16:08:20.624,1839
25/05/2019 16:08:20.628,2143
25/05/2019 16:08:20.632,2291
25/05/2019 16:08:20.636,2103
25/05/2019 16:08:20.640,1879
25/05/2019 16:08:20.644,2079
25/05/2019 16:08:20.648,2331
25/05/2019 16:08:20.652,2147
25/05/2019 16:08:20.656,1943
25/05/2019 16:08:20.660,2015
25/05/2019 16:08:20.664,2351
25/05/2019 16:08:20.668,2171
25/05/2019 16:08:20.672,1983
25/05/2019 16:08:20.676,1943
25/05/2019 16:08:20.680,2343
25/05/2019 16:08:20.684,2211
25/05/2019 16:08:20.688,2027
25/05/2019 16:08:20.692,1891
25/05/2019 16:08:20.696,2303
25/05/2019 16:08:20.700,2235
25/05/2019 16:08:20.704,2059
25/05/2019 16:08:20.708,1859
25/05/2019 16:08:20.712,2231
25/05/2019 16:08:20.716,2263
25/05/2019 16:08:20.720,2083
25/05/2019 16:08:20.724,1859
25/05/2019 16:08:20.728,2163
25/05/2019 16:08:20.732,2303
25/05/2019 16:08:20.736,2103
25/05/2019 16:08:20.740,1875
25/05/2019 16:08:20.744,2071
25/05/2019 16:08:20.748,2327
25/05/2019 16:08:20.752,2131
25/05/2019 16:08:20.756,1935
25/05/2019 16:08:20.760,2015
25/05/2019 16:08:20.764,2339
25/05/2019 16:08:20.768,2099
25/05/2019 16:08:20.772,1823
25/05/2019 16:08:20.776,1675
25/05/2019 16:08:20.780,2019
25/05/2019 16:08:20.784,1867
25/05/2019 16:08:20.788,1735
25/05/2019 16:08:20.792,1747
25/05/2019 16:08:20.796,2423
25/05/2019 16:08:20.800,2703
25/05/2019 16:08:20.804,2651
25/05/2019 16:08:20.808,2311
25/05/2019 16:08:20.812,2495
25/05/2019 16:08:20.816,2391
25/05/2019 16:08:20.820,2115
25/05/2019 16:08:20.824,1847
25/05/2019 16:08:20.828,2123
25/05/2019 16:08:20.832,2259
25/05/2019 16:08:20.836,2059
25/05/2019 16:08:20.840,1847
25/05/2019 16:08:20.844,2047
25/05/2019 16:08:20.848,2319
25/05/2019 16:08:20.852,2131
25/05/2019 16:08:20.856,1919
25/05/2019 16:08:20.860,1967
25/05/2019 16:08:20.864,2315
25/05/2019 16:08:20.868,2139
25/05/2019 16:08:20.872,1955
25/05/2019 16:08:20.876,1899
25/05/2019 16:08:20.880,2315
25/05/2019 16:08:20.884,2191
25/05/2019 16:08:20.888,2015
25/05/2019 16:08:20.892,1859
25/05/2019 16:08:20.896,2275
25/05/2019 16:08:20.900,2223
25/05/2019 16:08:20.904,2063
25/05/2019 16:08:20.908,1875
25/05/2019 16:08:20.912,2263
25/05/2019 16:08:20.916,2343
25/05/2019 16:08:20.920,2159
25/05/2019 16:08:20.924,1911
25/05/2019 16:08:20.928,2191
25/05/2019 16:08:20.932,2331
25/05/2019 16:08:20.936,2111
25/05/2019 16:08:20.940,1871
25/05/2019 16:08:20.944,2035
25/05/2019 16:08:20.948,2299
25/05/2019 16:08:20.952,2083
25/05/2019 16:08:20.956,1843
25/05/2019 16:08:20.960,1895
25/05/2019 16:08:20.964,2271
25/05/2019 16:08:20.968,2131
25/05/2019 16:08:20.972,1943
25/05/2019 16:08:20.976,1879
25/05/2019 16:08:20.980,2311
25/05/2019 16:08:20.984,2191
25/05/2019 16:08:20.988,2011
