Timestamp,ECG
25/05/2019 14:12:20.444,4095
25/05/2019 14:12:20.448,4095
25/05/2019 14:12:20.452,4091
25/05/2019 14:12:20.456,4095
25/05/2019 14:12:20.460,4095
25/05/2019 14:12:20.464,4095
25/05/2019 14:12:20.468,3967
25/05/2019 14:12:20.472,3891
25/05/2019 14:12:20.476,3839
25/05/2019 14:12:20.480,3791
25/05/2019 14:12:20.484,3915
25/05/2019 14:12:20.488,4091
25/05/2019 14:12:20.492,4095
25/05/2019 14:12:20.496,4095
25/05/2019 14:12:20.500,4083
25/05/2019 14:12:20.504,3847
25/05/2019 14:12:20.508,3543
25/05/2019 14:12:20.512,3351
25/05/2019 14:12:20.516,3291
25/05/2019 14:12:20.520,3291
25/05/2019 14:12:20.524,3379
25/05/2019 14:12:20.528,3487
25/05/2019 14:12:20.532,3475
25/05/2019 14:12:20.536,3447
25/05/2019 14:12:20.540,3443
25/05/2019 14:12:20.544,3435
25/05/2019 14:12:20.548,3307
25/05/2019 14:12:20.552,3247
25/05/2019 14:12:20.556,3267
25/05/2019 14:12:20.560,3379
25/05/2019 14:12:20.564,3551
25/05/2019 14:12:20.568,3707
25/05/2019 14:12:20.572,3839
25/05/2019 14:12:20.576,4047
25/05/2019 14:12:20.580,4095
25/05/2019 14:12:20.584,4095
25/05/2019 14:12:20.588,3775
25/05/2019 14:12:20.592,3503
25/05/2019 14:12:20.596,3295
25/05/2019 14:12:20.600,3071
25/05/2019 14:12:20.604,2715
25/05/2019 14:12:20.608,2403
25/05/2019 14:12:20.612,2447
25/05/2019 14:12:20.616,2519
25/05/2019 14:12:20.620,2571
25/05/2019 14:12:20.624,2623
25/05/2019 14:12:20.628,2759
25/05/2019 14:12:20.632,2707
25/05/2019 14:12:20.636,2715
25/05/2019 14:12:20.640,2867
25/05/2019 14:12:20.644,3059
25/05/2019 14:12:20.648,3231
25/05/2019 14:12:20.652,3395
25/05/2019 14:12:20.656,3795
25/05/2019 14:12:20.660,3247
25/05/2019 14:12:20.664,1191
25/05/2019 14:12:20.668,3
25/05/2019 14:12:20.672,3
25/05/2019 14:12:20.676,3
25/05/2019 14:12:20.680,3
25/05/2019 14:12:20.684,3
25/05/2019 14:12:20.688,3
25/05/2019 14:12:20.692,815
25/05/2019 14:12:20.696,1831
25/05/2019 14:12:20.700,2587
25/05/2019 14:12:20.704,3011
25/05/2019 14:12:20.708,3183
25/05/2019 14:12:20.712,3435
25/05/2019 14:12:20.716,2699
25/05/2019 14:12:20.720,2211
25/05/2019 14:12:20.724,2203
25/05/2019 14:12:20.728,1747
25/05/2019 14:12:20.732,1231
25/05/2019 14:12:20.736,531
25/05/2019 14:12:20.740,79
25/05/2019 14:12:20.744,1063
25/05/2019 14:12:20.748,1423
25/05/2019 14:12:20.752,2083
25/05/2019 14:12:20.756,2207
25/05/2019 14:12:20.760,1455
25/05/2019 14:12:20.764,1431
25/05/2019 14:12:20.768,2135
25/05/2019 14:12:20.772,2919
25/05/2019 14:12:20.776,3167
25/05/2019 14:12:20.780,3447
25/05/2019 14:12:20.784,3771
25/05/2019 14:12:20.788,3827
25/05/2019 14:12:20.792,3939
25/05/2019 14:12:20.796,3083
25/05/2019 14:12:20.800,107
25/05/2019 14:12:20.804,115
25/05/2019 14:12:20.808,7
25/05/2019 14:12:20.812,923
25/05/2019 14:12:20.816,3787
25/05/2019 14:12:20.820,4095
25/05/2019 14:12:20.824,4095
25/05/2019 14:12:20.828,4095
25/05/2019 14:12:20.832,4095
25/05/2019 14:12:20.836,4095
25/05/2019 14:12:20.840,4095
25/05/2019 14:12:20.844,4095
25/05/2019 14:12:20.848,4095
25/05/2019 14:12:20.852,4095
25/05/2019 14:12:20.856,4095
25/05/2019 14:12:20.860,4095
25/05/2019 14:12:20.864,4095
25/05/2019 14:12:20.868,4095
25/05/2019 14:12:20.872,4095
25/05/2019 14:12:20.876,4095
25/05/2019 14:12:20.880,4095
25/05/2019 14:12:20.884,4095
25/05/2019 14:12:20.888,4095
25/05/2019 14:12:20.892,4095
25/05/2019 14:12:20.896,4095
25/05/2019 14:12:20.900,4095
25/05/2019 14:12:20.904,4095
25/05/2019 14:12:20.908,4095
25/05/2019 14:12:20.912,4095
25/05/2019 14:12:20.916,4095
25/05/2019 14:12:20.920,4095
25/05/2019 14:12:20.924,4095
25/05/2019 14:12:20.928,4095
25/05/2019 14:12:20.932,4095
25/05/2019 14:12:20.936,4095
25/05/2019 14:12:20.940,4095
25/05/2019 14:12:20.944,4095
25/05/2019 14:12:20.948,4095
25/05/2019 14:12:20.952,4095
25/05/2019 14:12:20.956,4095
25/05/2019 14:12:20.960,4095
25/05/2019 14:12:20.964,4095
25/05/2019 14:12:20.968,4095
25/05/2019 14:12:20.972,4095
25/05/2019 14:12:20.976,4091
25/05/2019 14:12:20.980,3935
25/05/2019 14:12:20.984,3807
25/05/2019 14:12:20.988,3823
25/05/2019 14:12:20.992,3875
25/05/2019 14:12:20.996,3927
25/05/2019 14:12:21.000,3967
25/05/2019 14:12:21.004,4015
25/05/2019 14:12:21.008,4063
25/05/2019 14:12:21.012,4091
25/05/2019 14:12:21.016,4095
25/05/2019 14:12:21.020,4095
25/05/2019 14:12:21.024,4095
25/05/2019 14:12:21.028,4095
25/05/2019 14:12:21.032,4095
25/05/2019 14:12:21.036,4095
25/05/2019 14:12:21.040,4095
25/05/2019 14:12:21.044,4095
25/05/2019 14:12:21.048,4095
25/05/2019 14:12:21.052,4095
25/05/2019 14:12:21.056,4095
25/05/2019 14:12:21.060,4095
25/05/2019 14:12:21.064,4095
25/05/2019 14:12:21.068,4095
25/05/2019 14:12:21.072,4095
25/05/2019 14:12:21.076,3967
25/05/2019 14:12:21.080,3787
25/05/2019 14:12:21.084,3635
25/05/2019 14:12:21.088,3487
25/05/2019 14:12:21.092,3319
25/05/2019 14:12:21.096,3207
25/05/2019 14:12:21.100,3291
25/05/2019 14:12:21.104,3299
25/05/2019 14:12:21.108,3223
25/05/2019 14:12:21.112,3283
25/05/2019 14:12:21.116,3459
25/05/2019 14:12:21.120,3679
25/05/2019 14:12:21.124,4091
25/05/2019 14:12:21.128,4095
25/05/2019 14:12:21.132,4095
25/05/2019 14:12:21.136,4095
25/05/2019 14:12:21.140,4095
25/05/2019 14:12:21.144,4095
25/05/2019 14:12:21.148,3983
25/05/2019 14:12:21.152,3447
25/05/2019 14:12:21.156,2991
25/05/2019 14:12:21.160,2559
25/05/2019 14:12:21.164,2571
25/05/2019 14:12:21.168,2911
25/05/2019 14:12:21.172,3271
25/05/2019 14:12:21.176,3543
25/05/2019 14:12:21.180,3799
25/05/2019 14:12:21.184,3915
25/05/2019 14:12:21.188,3799
25/05/2019 14:12:21.192,3439
25/05/2019 14:12:21.196,3107
25/05/2019 14:12:21.200,2931
25/05/2019 14:12:21.204,2659
25/05/2019 14:12:21.208,2543
25/05/2019 14:12:21.212,2775
25/05/2019 14:12:21.216,3199
25/05/2019 14:12:21.220,3375
25/05/2019 14:12:21.224,3531
25/05/2019 14:12:21.228,3647
25/05/2019 14:12:21.232,3627
25/05/2019 14:12:21.236,3491
25/05/2019 14:12:21.240,3415
25/05/2019 14:12:21.244,3427
25/05/2019 14:12:21.248,3403
25/05/2019 14:12:21.252,3351
25/05/2019 14:12:21.256,3271
25/05/2019 14:12:21.260,3191
25/05/2019 14:12:21.264,3135
25/05/2019 14:12:21.268,3127
25/05/2019 14:12:21.272,3099
25/05/2019 14:12:21.276,3095
25/05/2019 14:12:21.280,3095
25/05/2019 14:12:21.284,3143
25/05/2019 14:12:21.288,3187
25/05/2019 14:12:21.292,3195
25/05/2019 14:12:21.296,3087
25/05/2019 14:12:21.300,2995
25/05/2019 14:12:21.304,2851
25/05/2019 14:12:21.308,2687
25/05/2019 14:12:21.312,2703
25/05/2019 14:12:21.316,2815
25/05/2019 14:12:21.320,2847
25/05/2019 14:12:21.324,2879
25/05/2019 14:12:21.328,2935
25/05/2019 14:12:21.332,3027
25/05/2019 14:12:21.336,3115
25/05/2019 14:12:21.340,3147
25/05/2019 14:12:21.344,3199
25/05/2019 14:12:21.348,3167
25/05/2019 14:12:21.352,3155
25/05/2019 14:12:21.356,3227
25/05/2019 14:12:21.360,3223
25/05/2019 14:12:21.364,3151
25/05/2019 14:12:21.368,3171
25/05/2019 14:12:21.372,3531
25/05/2019 14:12:21.376,3951
25/05/2019 14:12:21.380,4095
25/05/2019 14:12:21.384,4095
25/05/2019 14:12:21.388,4095
25/05/2019 14:12:21.392,4095
25/05/2019 14:12:21.396,4095
25/05/2019 14:12:21.400,3683
25/05/2019 14:12:21.404,3263
25/05/2019 14:12:21.408,2907
25/05/2019 14:12:21.412,2663
25/05/2019 14:12:21.416,2499
25/05/2019 14:12:21.420,2423
25/05/2019 14:12:21.424,2387
25/05/2019 14:12:21.428,2411
25/05/2019 14:12:21.432,2475
25/05/2019 14:12:21.436,2515
25/05/2019 14:12:21.440,2563
25/05/2019 14:12:21.444,2655
25/05/2019 14:12:21.448,2755
25/05/2019 14:12:21.452,2807
25/05/2019 14:12:21.456,2811
25/05/2019 14:12:21.460,2783
25/05/2019 14:12:21.464,2783
25/05/2019 14:12:21.468,2787
25/05/2019 14:12:21.472,2771
25/05/2019 14:12:21.476,2759
25/05/2019 14:12:21.480,2803
25/05/2019 14:12:21.484,2871
25/05/2019 14:12:21.488,2919
25/05/2019 14:12:21.492,2927
25/05/2019 14:12:21.496,2927
25/05/2019 14:12:21.500,2923
25/05/2019 14:12:21.504,2923
25/05/2019 14:12:21.508,2951
25/05/2019 14:12:21.512,2979
25/05/2019 14:12:21.516,3019
25/05/2019 14:12:21.520,3115
25/05/2019 14:12:21.524,3255
25/05/2019 14:12:21.528,3243
25/05/2019 14:12:21.532,3099
25/05/2019 14:12:21.536,3011
25/05/2019 14:12:21.540,2967
25/05/2019 14:12:21.544,2963
25/05/2019 14:12:21.548,2975
25/05/2019 14:12:21.552,2987
25/05/2019 14:12:21.556,2975
25/05/2019 14:12:21.560,2991
25/05/2019 14:12:21.564,2983
25/05/2019 14:12:21.568,2939
25/05/2019 14:12:21.572,2911
25/05/2019 14:12:21.576,2895
25/05/2019 14:12:21.580,2911
25/05/2019 14:12:21.584,2923
25/05/2019 14:12:21.588,3015
25/05/2019 14:12:21.592,3119
25/05/2019 14:12:21.596,3199
25/05/2019 14:12:21.600,3243
25/05/2019 14:12:21.604,3263
25/05/2019 14:12:21.608,3267
25/05/2019 14:12:21.612,3263
25/05/2019 14:12:21.616,3247
25/05/2019 14:12:21.620,3211
25/05/2019 14:12:21.624,3191
25/05/2019 14:12:21.628,3183
25/05/2019 14:12:21.632,3155
25/05/2019 14:12:21.636,3111
25/05/2019 14:12:21.640,3047
25/05/2019 14:12:21.644,2987
25/05/2019 14:12:21.648,2951
25/05/2019 14:12:21.652,2919
25/05/2019 14:12:21.656,2851
25/05/2019 14:12:21.660,2799
25/05/2019 14:12:21.664,2787
25/05/2019 14:12:21.668,2795
25/05/2019 14:12:21.672,2795
25/05/2019 14:12:21.676,2783
25/05/2019 14:12:21.680,2779
25/05/2019 14:12:21.684,2811
25/05/2019 14:12:21.688,2851
25/05/2019 14:12:21.692,2871
25/05/2019 14:12:21.696,2927
25/05/2019 14:12:21.700,2943
25/05/2019 14:12:21.704,2931
25/05/2019 14:12:21.708,2875
25/05/2019 14:12:21.712,2819
25/05/2019 14:12:21.716,2779
25/05/2019 14:12:21.720,2747
25/05/2019 14:12:21.724,2675
25/05/2019 14:12:21.728,2663
25/05/2019 14:12:21.732,2635
25/05/2019 14:12:21.736,2599
25/05/2019 14:12:21.740,2535
25/05/2019 14:12:21.744,2507
25/05/2019 14:12:21.748,2447
25/05/2019 14:12:21.752,2379
25/05/2019 14:12:21.756,2287
25/05/2019 14:12:21.760,2231
25/05/2019 14:12:21.764,2179
25/05/2019 14:12:21.768,2227
25/05/2019 14:12:21.772,2327
25/05/2019 14:12:21.776,2387
25/05/2019 14:12:21.780,2391
25/05/2019 14:12:21.784,2427
25/05/2019 14:12:21.788,2531
25/05/2019 14:12:21.792,2639
25/05/2019 14:12:21.796,2699
25/05/2019 14:12:21.800,2727
25/05/2019 14:12:21.804,2767
25/05/2019 14:12:21.808,2827
25/05/2019 14:12:21.812,2939
25/05/2019 14:12:21.816,3019
25/05/2019 14:12:21.820,3043
25/05/2019 14:12:21.824,3035
25/05/2019 14:12:21.828,3011
25/05/2019 14:12:21.832,3039
25/05/2019 14:12:21.836,3071
25/05/2019 14:12:21.840,3067
25/05/2019 14:12:21.844,3067
25/05/2019 14:12:21.848,3043
25/05/2019 14:12:21.852,3003
25/05/2019 14:12:21.856,2935
25/05/2019 14:12:21.860,2875
25/05/2019 14:12:21.864,2807
25/05/2019 14:12:21.868,2735
25/05/2019 14:12:21.872,2635
25/05/2019 14:12:21.876,2539
25/05/2019 14:12:21.880,2499
25/05/2019 14:12:21.884,2539
25/05/2019 14:12:21.888,2479
25/05/2019 14:12:21.892,2347
25/05/2019 14:12:21.896,2271
25/05/2019 14:12:21.900,2255
25/05/2019 14:12:21.904,2287
25/05/2019 14:12:21.908,2419
25/05/2019 14:12:21.912,2571
25/05/2019 14:12:21.916,2663
25/05/2019 14:12:21.920,2743
25/05/2019 14:12:21.924,2819
25/05/2019 14:12:21.928,2803
25/05/2019 14:12:21.932,2839
25/05/2019 14:12:21.936,2983
25/05/2019 14:12:21.940,3059
25/05/2019 14:12:21.944,3059
25/05/2019 14:12:21.948,3019
25/05/2019 14:12:21.952,3043
25/05/2019 14:12:21.956,3043
25/05/2019 14:12:21.960,2987
25/05/2019 14:12:21.964,2903
25/05/2019 14:12:21.968,2783
25/05/2019 14:12:21.972,2699
25/05/2019 14:12:21.976,2591
25/05/2019 14:12:21.980,2643
25/05/2019 14:12:21.984,2719
25/05/2019 14:12:21.988,2703
25/05/2019 14:12:21.992,2683
25/05/2019 14:12:21.996,2647
25/05/2019 14:12:22.000,2711
25/05/2019 14:12:22.004,2823
25/05/2019 14:12:22.008,2851
25/05/2019 14:12:22.012,2899
25/05/2019 14:12:22.016,2935
25/05/2019 14:12:22.020,2899
25/05/2019 14:12:22.024,2883
25/05/2019 14:12:22.028,2903
25/05/2019 14:12:22.032,2903
25/05/2019 14:12:22.036,2831
25/05/2019 14:12:22.040,2675
25/05/2019 14:12:22.044,2599
25/05/2019 14:12:22.048,2667
25/05/2019 14:12:22.052,2855
25/05/2019 14:12:22.056,3151
25/05/2019 14:12:22.060,3407
25/05/2019 14:12:22.064,3343
25/05/2019 14:12:22.068,3119
25/05/2019 14:12:22.072,2887
25/05/2019 14:12:22.076,2703
25/05/2019 14:12:22.080,2595
25/05/2019 14:12:22.084,2579
25/05/2019 14:12:22.088,2583
25/05/2019 14:12:22.092,2639
25/05/2019 14:12:22.096,2775
25/05/2019 14:12:22.100,3047
25/05/2019 14:12:22.104,3251
25/05/2019 14:12:22.108,3171
25/05/2019 14:12:22.112,3083
25/05/2019 14:12:22.116,2999
25/05/2019 14:12:22.120,2851
25/05/2019 14:12:22.124,2687
25/05/2019 14:12:22.128,2671
25/05/2019 14:12:22.132,2691
25/05/2019 14:12:22.136,2715
25/05/2019 14:12:22.140,2747
25/05/2019 14:12:22.144,2835
25/05/2019 14:12:22.148,2935
25/05/2019 14:12:22.152,2991
25/05/2019 14:12:22.156,2971
25/05/2019 14:12:22.160,2983
25/05/2019 14:12:22.164,2971
25/05/2019 14:12:22.168,2911
25/05/2019 14:12:22.172,2815
25/05/2019 14:12:22.176,2675
25/05/2019 14:12:22.180,2623
25/05/2019 14:12:22.184,2735
25/05/2019 14:12:22.188,2815
25/05/2019 14:12:22.192,2819
25/05/2019 14:12:22.196,2815
25/05/2019 14:12:22.200,2819
25/05/2019 14:12:22.204,2827
25/05/2019 14:12:22.208,2879
25/05/2019 14:12:22.212,2979
25/05/2019 14:12:22.216,3091
25/05/2019 14:12:22.220,3151
25/05/2019 14:12:22.224,3279
25/05/2019 14:12:22.228,3407
25/05/2019 14:12:22.232,3471
25/05/2019 14:12:22.236,3495
25/05/2019 14:12:22.240,3519
25/05/2019 14:12:22.244,3575
25/05/2019 14:12:22.248,3631
25/05/2019 14:12:22.252,3707
25/05/2019 14:12:22.256,3775
25/05/2019 14:12:22.260,3755
25/05/2019 14:12:22.264,3739
25/05/2019 14:12:22.268,3723
25/05/2019 14:12:22.272,3731
25/05/2019 14:12:22.276,3731
25/05/2019 14:12:22.280,3747
25/05/2019 14:12:22.284,3767
25/05/2019 14:12:22.288,3791
25/05/2019 14:12:22.292,3799
25/05/2019 14:12:22.296,3807
25/05/2019 14:12:22.300,3799
25/05/2019 14:12:22.304,3807
25/05/2019 14:12:22.308,3827
25/05/2019 14:12:22.312,3823
25/05/2019 14:12:22.316,3831
25/05/2019 14:12:22.320,3879
25/05/2019 14:12:22.324,3887
25/05/2019 14:12:22.328,3871
25/05/2019 14:12:22.332,3795
25/05/2019 14:12:22.336,3679
25/05/2019 14:12:22.340,3623
25/05/2019 14:12:22.344,3599
25/05/2019 14:12:22.348,3551
25/05/2019 14:12:22.352,3543
25/05/2019 14:12:22.356,3527
25/05/2019 14:12:22.360,3479
25/05/2019 14:12:22.364,3455
25/05/2019 14:12:22.368,3455
25/05/2019 14:12:22.372,3463
25/05/2019 14:12:22.376,3479
25/05/2019 14:12:22.380,3487
25/05/2019 14:12:22.384,3495
25/05/2019 14:12:22.388,3491
25/05/2019 14:12:22.392,3471
25/05/2019 14:12:22.396,3467
25/05/2019 14:12:22.400,3475
25/05/2019 14:12:22.404,3467
25/05/2019 14:12:22.408,3455
25/05/2019 14:12:22.412,3435
25/05/2019 14:12:22.416,3443
25/05/2019 14:12:22.420,3435
25/05/2019 14:12:22.424,3407
25/05/2019 14:12:22.428,3375
25/05/2019 14:12:22.432,3355
25/05/2019 14:12:22.436,3315
25/05/2019 14:12:22.440,3275
25/05/2019 14:12:22.444,3235
25/05/2019 14:12:22.448,3191
25/05/2019 14:12:22.452,3175
25/05/2019 14:12:22.456,3131
25/05/2019 14:12:22.460,3079
25/05/2019 14:12:22.464,3031
25/05/2019 14:12:22.468,3007
25/05/2019 14:12:22.472,2987
25/05/2019 14:12:22.476,2995
25/05/2019 14:12:22.480,3007
25/05/2019 14:12:22.484,2999
25/05/2019 14:12:22.488,2991
25/05/2019 14:12:22.492,3003
25/05/2019 14:12:22.496,3011
25/05/2019 14:12:22.500,3011
25/05/2019 14:12:22.504,3011
25/05/2019 14:12:22.508,2999
25/05/2019 14:12:22.512,2991
25/05/2019 14:12:22.516,2979
25/05/2019 14:12:22.520,2967
25/05/2019 14:12:22.524,2963
25/05/2019 14:12:22.528,2975
25/05/2019 14:12:22.532,2975
25/05/2019 14:12:22.536,2959
25/05/2019 14:12:22.540,2967
25/05/2019 14:12:22.544,2955
25/05/2019 14:12:22.548,2959
25/05/2019 14:12:22.552,2967
25/05/2019 14:12:22.556,2939
25/05/2019 14:12:22.560,2963
25/05/2019 14:12:22.564,2975
25/05/2019 14:12:22.568,2919
25/05/2019 14:12:22.572,2851
25/05/2019 14:12:22.576,2799
25/05/2019 14:12:22.580,2783
25/05/2019 14:12:22.584,2779
25/05/2019 14:12:22.588,2787
25/05/2019 14:12:22.592,2799
25/05/2019 14:12:22.596,2811
25/05/2019 14:12:22.600,2803
25/05/2019 14:12:22.604,2807
25/05/2019 14:12:22.608,2827
25/05/2019 14:12:22.612,2859
25/05/2019 14:12:22.616,2879
25/05/2019 14:12:22.620,2879
25/05/2019 14:12:22.624,2871
25/05/2019 14:12:22.628,2855
25/05/2019 14:12:22.632,2867
25/05/2019 14:12:22.636,2903
25/05/2019 14:12:22.640,2951
25/05/2019 14:12:22.644,2987
25/05/2019 14:12:22.648,3007
25/05/2019 14:12:22.652,3031
25/05/2019 14:12:22.656,3027
25/05/2019 14:12:22.660,3055
25/05/2019 14:12:22.664,3087
25/05/2019 14:12:22.668,3079
25/05/2019 14:12:22.672,3043
25/05/2019 14:12:22.676,2971
25/05/2019 14:12:22.680,2923
25/05/2019 14:12:22.684,2875
25/05/2019 14:12:22.688,2867
25/05/2019 14:12:22.692,2875
25/05/2019 14:12:22.696,2879
25/05/2019 14:12:22.700,2903
25/05/2019 14:12:22.704,2915
25/05/2019 14:12:22.708,2943
25/05/2019 14:12:22.712,2975
25/05/2019 14:12:22.716,2983
25/05/2019 14:12:22.720,2979
25/05/2019 14:12:22.724,2955
25/05/2019 14:12:22.728,2959
25/05/2019 14:12:22.732,2967
25/05/2019 14:12:22.736,2955
25/05/2019 14:12:22.740,2955
25/05/2019 14:12:22.744,2967
25/05/2019 14:12:22.748,2971
25/05/2019 14:12:22.752,2947
25/05/2019 14:12:22.756,2931
25/05/2019 14:12:22.760,2915
25/05/2019 14:12:22.764,2907
25/05/2019 14:12:22.768,2899
25/05/2019 14:12:22.772,2903
25/05/2019 14:12:22.776,2887
25/05/2019 14:12:22.780,2891
25/05/2019 14:12:22.784,2903
25/05/2019 14:12:22.788,2915
25/05/2019 14:12:22.792,2907
25/05/2019 14:12:22.796,2875
25/05/2019 14:12:22.800,2843
25/05/2019 14:12:22.804,2799
25/05/2019 14:12:22.808,2743
25/05/2019 14:12:22.812,2727
25/05/2019 14:12:22.816,2775
25/05/2019 14:12:22.820,2907
25/05/2019 14:12:22.824,3079
25/05/2019 14:12:22.828,3343
25/05/2019 14:12:22.832,3339
25/05/2019 14:12:22.836,3167
25/05/2019 14:12:22.840,2987
25/05/2019 14:12:22.844,2851
25/05/2019 14:12:22.848,2763
25/05/2019 14:12:22.852,2727
25/05/2019 14:12:22.856,2739
25/05/2019 14:12:22.860,2783
25/05/2019 14:12:22.864,2803
25/05/2019 14:12:22.868,2815
25/05/2019 14:12:22.872,2827
25/05/2019 14:12:22.876,2839
25/05/2019 14:12:22.880,2851
25/05/2019 14:12:22.884,2839
25/05/2019 14:12:22.888,2859
25/05/2019 14:12:22.892,2875
25/05/2019 14:12:22.896,2891
25/05/2019 14:12:22.900,2907
25/05/2019 14:12:22.904,2919
25/05/2019 14:12:22.908,2939
25/05/2019 14:12:22.912,2955
25/05/2019 14:12:22.916,2939
25/05/2019 14:12:22.920,2931
25/05/2019 14:12:22.924,2943
25/05/2019 14:12:22.928,2955
25/05/2019 14:12:22.932,2959
25/05/2019 14:12:22.936,2959
25/05/2019 14:12:22.940,2971
25/05/2019 14:12:22.944,2995
25/05/2019 14:12:22.948,2979
25/05/2019 14:12:22.952,2927
25/05/2019 14:12:22.956,2895
25/05/2019 14:12:22.960,2887
25/05/2019 14:12:22.964,2871
25/05/2019 14:12:22.968,2863
25/05/2019 14:12:22.972,2855
25/05/2019 14:12:22.976,2835
25/05/2019 14:12:22.980,2839
25/05/2019 14:12:22.984,2863
25/05/2019 14:12:22.988,2863
25/05/2019 14:12:22.992,2871
25/05/2019 14:12:22.996,2887
25/05/2019 14:12:23.000,2883
25/05/2019 14:12:23.004,2847
25/05/2019 14:12:23.008,2815
25/05/2019 14:12:23.012,2831
25/05/2019 14:12:23.016,2851
25/05/2019 14:12:23.020,2863
25/05/2019 14:12:23.024,2879
25/05/2019 14:12:23.028,2891
25/05/2019 14:12:23.032,2879
25/05/2019 14:12:23.036,2859
25/05/2019 14:12:23.040,2847
25/05/2019 14:12:23.044,2839
25/05/2019 14:12:23.048,2831
25/05/2019 14:12:23.052,2831
25/05/2019 14:12:23.056,2823
25/05/2019 14:12:23.060,2811
25/05/2019 14:12:23.064,2831
25/05/2019 14:12:23.068,2855
25/05/2019 14:12:23.072,2859
25/05/2019 14:12:23.076,2867
25/05/2019 14:12:23.080,2831
25/05/2019 14:12:23.084,2807
25/05/2019 14:12:23.088,2831
25/05/2019 14:12:23.092,2867
25/05/2019 14:12:23.096,2919
25/05/2019 14:12:23.100,2923
25/05/2019 14:12:23.104,2903
25/05/2019 14:12:23.108,2839
25/05/2019 14:12:23.112,2779
25/05/2019 14:12:23.116,2743
25/05/2019 14:12:23.120,2751
25/05/2019 14:12:23.124,2747
25/05/2019 14:12:23.128,2763
25/05/2019 14:12:23.132,2787
25/05/2019 14:12:23.136,2827
25/05/2019 14:12:23.140,2823
25/05/2019 14:12:23.144,2807
25/05/2019 14:12:23.148,2799
25/05/2019 14:12:23.152,2763
25/05/2019 14:12:23.156,2715
25/05/2019 14:12:23.160,2715
25/05/2019 14:12:23.164,2715
25/05/2019 14:12:23.168,2695
25/05/2019 14:12:23.172,2703
25/05/2019 14:12:23.176,2687
25/05/2019 14:12:23.180,2643
25/05/2019 14:12:23.184,2639
25/05/2019 14:12:23.188,2683
25/05/2019 14:12:23.192,2699
25/05/2019 14:12:23.196,2715
25/05/2019 14:12:23.200,2731
25/05/2019 14:12:23.204,2719
25/05/2019 14:12:23.208,2707
25/05/2019 14:12:23.212,2715
25/05/2019 14:12:23.216,2723
25/05/2019 14:12:23.220,2735
25/05/2019 14:12:23.224,2759
25/05/2019 14:12:23.228,2795
25/05/2019 14:12:23.232,2799
25/05/2019 14:12:23.236,2819
25/05/2019 14:12:23.240,2847
25/05/2019 14:12:23.244,2863
25/05/2019 14:12:23.248,2891
25/05/2019 14:12:23.252,2891
25/05/2019 14:12:23.256,2855
25/05/2019 14:12:23.260,2815
25/05/2019 14:12:23.264,2795
25/05/2019 14:12:23.268,2791
25/05/2019 14:12:23.272,2815
25/05/2019 14:12:23.276,2827
25/05/2019 14:12:23.280,2835
25/05/2019 14:12:23.284,2847
25/05/2019 14:12:23.288,2843
25/05/2019 14:12:23.292,2839
25/05/2019 14:12:23.296,2831
25/05/2019 14:12:23.300,2839
25/05/2019 14:12:23.304,2839
25/05/2019 14:12:23.308,2839
25/05/2019 14:12:23.312,2871
25/05/2019 14:12:23.316,2863
25/05/2019 14:12:23.320,2855
25/05/2019 14:12:23.324,2859
25/05/2019 14:12:23.328,2895
25/05/2019 14:12:23.332,2923
25/05/2019 14:12:23.336,2943
25/05/2019 14:12:23.340,2943
25/05/2019 14:12:23.344,2931
25/05/2019 14:12:23.348,2935
25/05/2019 14:12:23.352,2931
25/05/2019 14:12:23.356,2923
25/05/2019 14:12:23.360,2895
25/05/2019 14:12:23.364,2867
25/05/2019 14:12:23.368,2875
25/05/2019 14:12:23.372,2867
25/05/2019 14:12:23.376,2823
25/05/2019 14:12:23.380,2799
25/05/2019 14:12:23.384,2783
25/05/2019 14:12:23.388,2779
25/05/2019 14:12:23.392,2779
25/05/2019 14:12:23.396,2779
25/05/2019 14:12:23.400,2767
25/05/2019 14:12:23.404,2755
25/05/2019 14:12:23.408,2747
25/05/2019 14:12:23.412,2743
25/05/2019 14:12:23.416,2759
25/05/2019 14:12:23.420,2759
25/05/2019 14:12:23.424,2783
25/05/2019 14:12:23.428,2839
25/05/2019 14:12:23.432,2887
25/05/2019 14:12:23.436,2891
25/05/2019 14:12:23.440,2859
25/05/2019 14:12:23.444,2835
25/05/2019 14:12:23.448,2823
25/05/2019 14:12:23.452,2831
25/05/2019 14:12:23.456,2815
25/05/2019 14:12:23.460,2807
25/05/2019 14:12:23.464,2795
25/05/2019 14:12:23.468,2799
25/05/2019 14:12:23.472,2811
25/05/2019 14:12:23.476,2815
25/05/2019 14:12:23.480,2823
25/05/2019 14:12:23.484,2831
25/05/2019 14:12:23.488,2823
25/05/2019 14:12:23.492,2807
25/05/2019 14:12:23.496,2783
25/05/2019 14:12:23.500,2755
25/05/2019 14:12:23.504,2759
25/05/2019 14:12:23.508,2771
25/05/2019 14:12:23.512,2771
25/05/2019 14:12:23.516,2735
25/05/2019 14:12:23.520,2671
25/05/2019 14:12:23.524,2607
25/05/2019 14:12:23.528,2559
25/05/2019 14:12:23.532,2579
25/05/2019 14:12:23.536,2647
25/05/2019 14:12:23.540,2799
25/05/2019 14:12:23.544,3031
25/05/2019 14:12:23.548,3251
25/05/2019 14:12:23.552,3191
25/05/2019 14:12:23.556,3011
25/05/2019 14:12:23.560,2859
25/05/2019 14:12:23.564,2739
25/05/2019 14:12:23.568,2667
25/05/2019 14:12:23.572,2679
25/05/2019 14:12:23.576,2715
25/05/2019 14:12:23.580,2747
25/05/2019 14:12:23.584,2791
25/05/2019 14:12:23.588,2811
25/05/2019 14:12:23.592,2823
25/05/2019 14:12:23.596,2819
25/05/2019 14:12:23.600,2819
25/05/2019 14:12:23.604,2815
25/05/2019 14:12:23.608,2819
25/05/2019 14:12:23.612,2815
25/05/2019 14:12:23.616,2811
25/05/2019 14:12:23.620,2799
25/05/2019 14:12:23.624,2799
25/05/2019 14:12:23.628,2799
25/05/2019 14:12:23.632,2795
25/05/2019 14:12:23.636,2795
25/05/2019 14:12:23.640,2807
25/05/2019 14:12:23.644,2807
25/05/2019 14:12:23.648,2783
25/05/2019 14:12:23.652,2783
25/05/2019 14:12:23.656,2791
25/05/2019 14:12:23.660,2791
25/05/2019 14:12:23.664,2791
25/05/2019 14:12:23.668,2791
25/05/2019 14:12:23.672,2803
25/05/2019 14:12:23.676,2815
25/05/2019 14:12:23.680,2803
25/05/2019 14:12:23.684,2799
25/05/2019 14:12:23.688,2803
25/05/2019 14:12:23.692,2807
25/05/2019 14:12:23.696,2803
25/05/2019 14:12:23.700,2799
25/05/2019 14:12:23.704,2803
25/05/2019 14:12:23.708,2791
25/05/2019 14:12:23.712,2779
25/05/2019 14:12:23.716,2783
25/05/2019 14:12:23.720,2779
25/05/2019 14:12:23.724,2767
25/05/2019 14:12:23.728,2755
25/05/2019 14:12:23.732,2751
25/05/2019 14:12:23.736,2751
25/05/2019 14:12:23.740,2755
25/05/2019 14:12:23.744,2759
25/05/2019 14:12:23.748,2755
25/05/2019 14:12:23.752,2763
25/05/2019 14:12:23.756,2759
25/05/2019 14:12:23.760,2755
25/05/2019 14:12:23.764,2767
25/05/2019 14:12:23.768,2767
25/05/2019 14:12:23.772,2751
25/05/2019 14:12:23.776,2747
25/05/2019 14:12:23.780,2747
25/05/2019 14:12:23.784,2751
25/05/2019 14:12:23.788,2743
25/05/2019 14:12:23.792,2743
25/05/2019 14:12:23.796,2747
25/05/2019 14:12:23.800,2759
25/05/2019 14:12:23.804,2759
25/05/2019 14:12:23.808,2767
25/05/2019 14:12:23.812,2759
25/05/2019 14:12:23.816,2763
25/05/2019 14:12:23.820,2755
25/05/2019 14:12:23.824,2759
25/05/2019 14:12:23.828,2759
25/05/2019 14:12:23.832,2755
25/05/2019 14:12:23.836,2759
25/05/2019 14:12:23.840,2751
25/05/2019 14:12:23.844,2743
25/05/2019 14:12:23.848,2731
25/05/2019 14:12:23.852,2731
25/05/2019 14:12:23.856,2735
25/05/2019 14:12:23.860,2727
25/05/2019 14:12:23.864,2715
25/05/2019 14:12:23.868,2715
25/05/2019 14:12:23.872,2707
25/05/2019 14:12:23.876,2707
25/05/2019 14:12:23.880,2707
25/05/2019 14:12:23.884,2699
25/05/2019 14:12:23.888,2679
25/05/2019 14:12:23.892,2663
25/05/2019 14:12:23.896,2667
25/05/2019 14:12:23.900,2687
25/05/2019 14:12:23.904,2711
25/05/2019 14:12:23.908,2711
25/05/2019 14:12:23.912,2683
25/05/2019 14:12:23.916,2687
25/05/2019 14:12:23.920,2715
25/05/2019 14:12:23.924,2707
25/05/2019 14:12:23.928,2691
25/05/2019 14:12:23.932,2703
25/05/2019 14:12:23.936,2723
25/05/2019 14:12:23.940,2727
25/05/2019 14:12:23.944,2731
25/05/2019 14:12:23.948,2739
25/05/2019 14:12:23.952,2739
25/05/2019 14:12:23.956,2735
25/05/2019 14:12:23.960,2751
25/05/2019 14:12:23.964,2743
25/05/2019 14:12:23.968,2735
25/05/2019 14:12:23.972,2727
25/05/2019 14:12:23.976,2723
25/05/2019 14:12:23.980,2719
25/05/2019 14:12:23.984,2715
25/05/2019 14:12:23.988,2711
25/05/2019 14:12:23.992,2703
25/05/2019 14:12:23.996,2711
25/05/2019 14:12:24.000,2711
25/05/2019 14:12:24.004,2707
25/05/2019 14:12:24.008,2707
25/05/2019 14:12:24.012,2711
25/05/2019 14:12:24.016,2695
25/05/2019 14:12:24.020,2707
25/05/2019 14:12:24.024,2695
25/05/2019 14:12:24.028,2715
25/05/2019 14:12:24.032,2711
25/05/2019 14:12:24.036,2707
25/05/2019 14:12:24.040,2699
25/05/2019 14:12:24.044,2699
25/05/2019 14:12:24.048,2707
25/05/2019 14:12:24.052,2707
25/05/2019 14:12:24.056,2703
25/05/2019 14:12:24.060,2707
25/05/2019 14:12:24.064,2703
25/05/2019 14:12:24.068,2703
25/05/2019 14:12:24.072,2707
25/05/2019 14:12:24.076,2711
25/05/2019 14:12:24.080,2711
25/05/2019 14:12:24.084,2707
25/05/2019 14:12:24.088,2699
25/05/2019 14:12:24.092,2699
25/05/2019 14:12:24.096,2691
25/05/2019 14:12:24.100,2707
25/05/2019 14:12:24.104,2723
25/05/2019 14:12:24.108,2723
25/05/2019 14:12:24.112,2711
25/05/2019 14:12:24.116,2703
25/05/2019 14:12:24.120,2699
25/05/2019 14:12:24.124,2699
25/05/2019 14:12:24.128,2703
25/05/2019 14:12:24.132,2711
25/05/2019 14:12:24.136,2719
25/05/2019 14:12:24.140,2711
25/05/2019 14:12:24.144,2715
25/05/2019 14:12:24.148,2711
25/05/2019 14:12:24.152,2711
25/05/2019 14:12:24.156,2703
25/05/2019 14:12:24.160,2703
25/05/2019 14:12:24.164,2707
25/05/2019 14:12:24.168,2711
25/05/2019 14:12:24.172,2711
25/05/2019 14:12:24.176,2703
25/05/2019 14:12:24.180,2707
25/05/2019 14:12:24.184,2715
25/05/2019 14:12:24.188,2695
25/05/2019 14:12:24.192,2687
25/05/2019 14:12:24.196,2675
25/05/2019 14:12:24.200,2651
25/05/2019 14:12:24.204,2623
25/05/2019 14:12:24.208,2575
25/05/2019 14:12:24.212,2511
25/05/2019 14:12:24.216,2467
25/05/2019 14:12:24.220,2471
25/05/2019 14:12:24.224,2511
25/05/2019 14:12:24.228,2671
25/05/2019 14:12:24.232,2899
25/05/2019 14:12:24.236,3103
25/05/2019 14:12:24.240,3075
25/05/2019 14:12:24.244,2931
25/05/2019 14:12:24.248,2779
25/05/2019 14:12:24.252,2651
25/05/2019 14:12:24.256,2587
25/05/2019 14:12:24.260,2575
25/05/2019 14:12:24.264,2587
25/05/2019 14:12:24.268,2619
25/05/2019 14:12:24.272,2631
25/05/2019 14:12:24.276,2635
25/05/2019 14:12:24.280,2607
25/05/2019 14:12:24.284,2607
25/05/2019 14:12:24.288,2619
25/05/2019 14:12:24.292,2635
25/05/2019 14:12:24.296,2639
25/05/2019 14:12:24.300,2647
25/05/2019 14:12:24.304,2655
25/05/2019 14:12:24.308,2655
25/05/2019 14:12:24.312,2651
25/05/2019 14:12:24.316,2651
25/05/2019 14:12:24.320,2647
25/05/2019 14:12:24.324,2655
25/05/2019 14:12:24.328,2671
25/05/2019 14:12:24.332,2679
25/05/2019 14:12:24.336,2683
25/05/2019 14:12:24.340,2699
25/05/2019 14:12:24.344,2715
25/05/2019 14:12:24.348,2723
25/05/2019 14:12:24.352,2727
25/05/2019 14:12:24.356,2727
25/05/2019 14:12:24.360,2731
25/05/2019 14:12:24.364,2727
25/05/2019 14:12:24.368,2719
25/05/2019 14:12:24.372,2715
25/05/2019 14:12:24.376,2715
25/05/2019 14:12:24.380,2715
25/05/2019 14:12:24.384,2707
25/05/2019 14:12:24.388,2695
25/05/2019 14:12:24.392,2667
25/05/2019 14:12:24.396,2647
25/05/2019 14:12:24.400,2631
25/05/2019 14:12:24.404,2627
25/05/2019 14:12:24.408,2627
25/05/2019 14:12:24.412,2631
25/05/2019 14:12:24.416,2635
25/05/2019 14:12:24.420,2643
25/05/2019 14:12:24.424,2631
25/05/2019 14:12:24.428,2635
25/05/2019 14:12:24.432,2639
25/05/2019 14:12:24.436,2631
25/05/2019 14:12:24.440,2639
25/05/2019 14:12:24.444,2659
25/05/2019 14:12:24.448,2683
25/05/2019 14:12:24.452,2695
25/05/2019 14:12:24.456,2691
25/05/2019 14:12:24.460,2703
25/05/2019 14:12:24.464,2719
25/05/2019 14:12:24.468,2731
25/05/2019 14:12:24.472,2727
25/05/2019 14:12:24.476,2719
25/05/2019 14:12:24.480,2711
25/05/2019 14:12:24.484,2711
25/05/2019 14:12:24.488,2703
25/05/2019 14:12:24.492,2683
25/05/2019 14:12:24.496,2671
25/05/2019 14:12:24.500,2679
25/05/2019 14:12:24.504,2687
25/05/2019 14:12:24.508,2699
25/05/2019 14:12:24.512,2703
25/05/2019 14:12:24.516,2683
25/05/2019 14:12:24.520,2667
25/05/2019 14:12:24.524,2647
25/05/2019 14:12:24.528,2635
25/05/2019 14:12:24.532,2623
25/05/2019 14:12:24.536,2615
25/05/2019 14:12:24.540,2611
25/05/2019 14:12:24.544,2607
25/05/2019 14:12:24.548,2599
25/05/2019 14:12:24.552,2595
25/05/2019 14:12:24.556,2599
25/05/2019 14:12:24.560,2583
25/05/2019 14:12:24.564,2591
25/05/2019 14:12:24.568,2599
25/05/2019 14:12:24.572,2611
25/05/2019 14:12:24.576,2635
25/05/2019 14:12:24.580,2627
25/05/2019 14:12:24.584,2627
25/05/2019 14:12:24.588,2631
25/05/2019 14:12:24.592,2623
25/05/2019 14:12:24.596,2603
25/05/2019 14:12:24.600,2599
25/05/2019 14:12:24.604,2603
25/05/2019 14:12:24.608,2607
25/05/2019 14:12:24.612,2607
25/05/2019 14:12:24.616,2607
25/05/2019 14:12:24.620,2607
25/05/2019 14:12:24.624,2619
25/05/2019 14:12:24.628,2631
25/05/2019 14:12:24.632,2643
25/05/2019 14:12:24.636,2643
25/05/2019 14:12:24.640,2655
25/05/2019 14:12:24.644,2647
25/05/2019 14:12:24.648,2639
25/05/2019 14:12:24.652,2643
25/05/2019 14:12:24.656,2643
25/05/2019 14:12:24.660,2647
25/05/2019 14:12:24.664,2651
25/05/2019 14:12:24.668,2651
25/05/2019 14:12:24.672,2647
25/05/2019 14:12:24.676,2639
25/05/2019 14:12:24.680,2635
25/05/2019 14:12:24.684,2631
25/05/2019 14:12:24.688,2631
25/05/2019 14:12:24.692,2631
25/05/2019 14:12:24.696,2643
25/05/2019 14:12:24.700,2663
25/05/2019 14:12:24.704,2687
25/05/2019 14:12:24.708,2711
25/05/2019 14:12:24.712,2731
25/05/2019 14:12:24.716,2747
25/05/2019 14:12:24.720,2763
25/05/2019 14:12:24.724,2771
25/05/2019 14:12:24.728,2787
25/05/2019 14:12:24.732,2783
25/05/2019 14:12:24.736,2783
25/05/2019 14:12:24.740,2783
25/05/2019 14:12:24.744,2775
25/05/2019 14:12:24.748,2759
25/05/2019 14:12:24.752,2739
25/05/2019 14:12:24.756,2743
25/05/2019 14:12:24.760,2727
25/05/2019 14:12:24.764,2711
25/05/2019 14:12:24.768,2687
25/05/2019 14:12:24.772,2675
25/05/2019 14:12:24.776,2663
25/05/2019 14:12:24.780,2675
25/05/2019 14:12:24.784,2691
25/05/2019 14:12:24.788,2675
25/05/2019 14:12:24.792,2667
25/05/2019 14:12:24.796,2659
25/05/2019 14:12:24.800,2655
25/05/2019 14:12:24.804,2647
25/05/2019 14:12:24.808,2643
25/05/2019 14:12:24.812,2647
25/05/2019 14:12:24.816,2639
25/05/2019 14:12:24.820,2627
25/05/2019 14:12:24.824,2619
25/05/2019 14:12:24.828,2619
25/05/2019 14:12:24.832,2635
25/05/2019 14:12:24.836,2643
25/05/2019 14:12:24.840,2631
25/05/2019 14:12:24.844,2627
25/05/2019 14:12:24.848,2611
25/05/2019 14:12:24.852,2603
25/05/2019 14:12:24.856,2603
25/05/2019 14:12:24.860,2591
25/05/2019 14:12:24.864,2579
25/05/2019 14:12:24.868,2587
25/05/2019 14:12:24.872,2599
25/05/2019 14:12:24.876,2575
25/05/2019 14:12:24.880,2571
25/05/2019 14:12:24.884,2567
25/05/2019 14:12:24.888,2571
25/05/2019 14:12:24.892,2555
25/05/2019 14:12:24.896,2479
25/05/2019 14:12:24.900,2427
25/05/2019 14:12:24.904,2451
25/05/2019 14:12:24.908,2483
25/05/2019 14:12:24.912,2519
25/05/2019 14:12:24.916,2563
25/05/2019 14:12:24.920,2531
25/05/2019 14:12:24.924,2499
25/05/2019 14:12:24.928,2503
25/05/2019 14:12:24.932,2475
25/05/2019 14:12:24.936,2447
25/05/2019 14:12:24.940,2515
25/05/2019 14:12:24.944,2715
25/05/2019 14:12:24.948,2955
25/05/2019 14:12:24.952,2943
25/05/2019 14:12:24.956,2811
25/05/2019 14:12:24.960,2679
25/05/2019 14:12:24.964,2559
25/05/2019 14:12:24.968,2463
25/05/2019 14:12:24.972,2419
25/05/2019 14:12:24.976,2439
25/05/2019 14:12:24.980,2483
25/05/2019 14:12:24.984,2523
25/05/2019 14:12:24.988,2535
25/05/2019 14:12:24.992,2539
25/05/2019 14:12:24.996,2523
25/05/2019 14:12:25.000,2483
25/05/2019 14:12:25.004,2443
25/05/2019 14:12:25.008,2479
25/05/2019 14:12:25.012,2515
25/05/2019 14:12:25.016,2535
25/05/2019 14:12:25.020,2535
25/05/2019 14:12:25.024,2499
25/05/2019 14:12:25.028,2467
25/05/2019 14:12:25.032,2479
25/05/2019 14:12:25.036,2515
25/05/2019 14:12:25.040,2535
25/05/2019 14:12:25.044,2531
25/05/2019 14:12:25.048,2523
25/05/2019 14:12:25.052,2515
25/05/2019 14:12:25.056,2519
25/05/2019 14:12:25.060,2543
25/05/2019 14:12:25.064,2571
25/05/2019 14:12:25.068,2583
25/05/2019 14:12:25.072,2583
25/05/2019 14:12:25.076,2591
25/05/2019 14:12:25.080,2603
25/05/2019 14:12:25.084,2603
25/05/2019 14:12:25.088,2611
25/05/2019 14:12:25.092,2607
25/05/2019 14:12:25.096,2603
25/05/2019 14:12:25.100,2603
25/05/2019 14:12:25.104,2591
25/05/2019 14:12:25.108,2583
25/05/2019 14:12:25.112,2599
25/05/2019 14:12:25.116,2591
25/05/2019 14:12:25.120,2575
25/05/2019 14:12:25.124,2575
25/05/2019 14:12:25.128,2571
25/05/2019 14:12:25.132,2579
25/05/2019 14:12:25.136,2607
25/05/2019 14:12:25.140,2631
25/05/2019 14:12:25.144,2655
25/05/2019 14:12:25.148,2651
25/05/2019 14:12:25.152,2591
25/05/2019 14:12:25.156,2527
25/05/2019 14:12:25.160,2499
25/05/2019 14:12:25.164,2519
25/05/2019 14:12:25.168,2559
25/05/2019 14:12:25.172,2587
25/05/2019 14:12:25.176,2599
25/05/2019 14:12:25.180,2603
25/05/2019 14:12:25.184,2611
25/05/2019 14:12:25.188,2599
25/05/2019 14:12:25.192,2587
25/05/2019 14:12:25.196,2579
25/05/2019 14:12:25.200,2595
25/05/2019 14:12:25.204,2591
25/05/2019 14:12:25.208,2583
25/05/2019 14:12:25.212,2595
25/05/2019 14:12:25.216,2595
25/05/2019 14:12:25.220,2595
25/05/2019 14:12:25.224,2595
25/05/2019 14:12:25.228,2591
25/05/2019 14:12:25.232,2587
25/05/2019 14:12:25.236,2595
25/05/2019 14:12:25.240,2599
25/05/2019 14:12:25.244,2595
25/05/2019 14:12:25.248,2591
25/05/2019 14:12:25.252,2575
25/05/2019 14:12:25.256,2595
25/05/2019 14:12:25.260,2603
25/05/2019 14:12:25.264,2583
25/05/2019 14:12:25.268,2571
25/05/2019 14:12:25.272,2567
25/05/2019 14:12:25.276,2563
25/05/2019 14:12:25.280,2539
25/05/2019 14:12:25.284,2531
25/05/2019 14:12:25.288,2531
25/05/2019 14:12:25.292,2531
25/05/2019 14:12:25.296,2535
25/05/2019 14:12:25.300,2539
25/05/2019 14:12:25.304,2547
25/05/2019 14:12:25.308,2547
25/05/2019 14:12:25.312,2547
25/05/2019 14:12:25.316,2555
25/05/2019 14:12:25.320,2543
25/05/2019 14:12:25.324,2543
25/05/2019 14:12:25.328,2543
25/05/2019 14:12:25.332,2543
25/05/2019 14:12:25.336,2551
25/05/2019 14:12:25.340,2547
25/05/2019 14:12:25.344,2547
25/05/2019 14:12:25.348,2551
25/05/2019 14:12:25.352,2547
25/05/2019 14:12:25.356,2559
25/05/2019 14:12:25.360,2559
25/05/2019 14:12:25.364,2579
25/05/2019 14:12:25.368,2599
25/05/2019 14:12:25.372,2591
25/05/2019 14:12:25.376,2583
25/05/2019 14:12:25.380,2579
25/05/2019 14:12:25.384,2559
25/05/2019 14:12:25.388,2563
25/05/2019 14:12:25.392,2547
25/05/2019 14:12:25.396,2543
25/05/2019 14:12:25.400,2559
25/05/2019 14:12:25.404,2551
25/05/2019 14:12:25.408,2543
25/05/2019 14:12:25.412,2543
25/05/2019 14:12:25.416,2535
25/05/2019 14:12:25.420,2535
25/05/2019 14:12:25.424,2547
25/05/2019 14:12:25.428,2547
25/05/2019 14:12:25.432,2559
25/05/2019 14:12:25.436,2555
25/05/2019 14:12:25.440,2539
25/05/2019 14:12:25.444,2535
25/05/2019 14:12:25.448,2539
25/05/2019 14:12:25.452,2551
25/05/2019 14:12:25.456,2579
25/05/2019 14:12:25.460,2611
25/05/2019 14:12:25.464,2607
25/05/2019 14:12:25.468,2603
25/05/2019 14:12:25.472,2591
25/05/2019 14:12:25.476,2603
25/05/2019 14:12:25.480,2599
25/05/2019 14:12:25.484,2575
25/05/2019 14:12:25.488,2547
25/05/2019 14:12:25.492,2539
25/05/2019 14:12:25.496,2535
25/05/2019 14:12:25.500,2531
25/05/2019 14:12:25.504,2535
25/05/2019 14:12:25.508,2527
25/05/2019 14:12:25.512,2527
25/05/2019 14:12:25.516,2511
25/05/2019 14:12:25.520,2519
25/05/2019 14:12:25.524,2511
25/05/2019 14:12:25.528,2527
25/05/2019 14:12:25.532,2527
25/05/2019 14:12:25.536,2511
25/05/2019 14:12:25.540,2519
25/05/2019 14:12:25.544,2511
25/05/2019 14:12:25.548,2515
25/05/2019 14:12:25.552,2535
25/05/2019 14:12:25.556,2563
25/05/2019 14:12:25.560,2579
25/05/2019 14:12:25.564,2583
25/05/2019 14:12:25.568,2591
25/05/2019 14:12:25.572,2575
25/05/2019 14:12:25.576,2567
25/05/2019 14:12:25.580,2571
25/05/2019 14:12:25.584,2579
25/05/2019 14:12:25.588,2583
25/05/2019 14:12:25.592,2579
25/05/2019 14:12:25.596,2551
25/05/2019 14:12:25.600,2555
25/05/2019 14:12:25.604,2547
25/05/2019 14:12:25.608,2531
25/05/2019 14:12:25.612,2523
25/05/2019 14:12:25.616,2511
25/05/2019 14:12:25.620,2511
25/05/2019 14:12:25.624,2515
25/05/2019 14:12:25.628,2523
25/05/2019 14:12:25.632,2519
25/05/2019 14:12:25.636,2507
25/05/2019 14:12:25.640,2515
25/05/2019 14:12:25.644,2507
25/05/2019 14:12:25.648,2487
25/05/2019 14:12:25.652,2435
25/05/2019 14:12:25.656,2367
25/05/2019 14:12:25.660,2327
25/05/2019 14:12:25.664,2331
25/05/2019 14:12:25.668,2375
25/05/2019 14:12:25.672,2511
25/05/2019 14:12:25.676,2735
25/05/2019 14:12:25.680,2995
25/05/2019 14:12:25.684,2991
25/05/2019 14:12:25.688,2823
25/05/2019 14:12:25.692,2651
25/05/2019 14:12:25.696,2499
25/05/2019 14:12:25.700,2415
25/05/2019 14:12:25.704,2387
25/05/2019 14:12:25.708,2399
25/05/2019 14:12:25.712,2407
25/05/2019 14:12:25.716,2439
25/05/2019 14:12:25.720,2451
25/05/2019 14:12:25.724,2455
25/05/2019 14:12:25.728,2447
25/05/2019 14:12:25.732,2463
25/05/2019 14:12:25.736,2487
25/05/2019 14:12:25.740,2475
25/05/2019 14:12:25.744,2479
25/05/2019 14:12:25.748,2487
25/05/2019 14:12:25.752,2503
25/05/2019 14:12:25.756,2511
25/05/2019 14:12:25.760,2523
25/05/2019 14:12:25.764,2491
25/05/2019 14:12:25.768,2475
25/05/2019 14:12:25.772,2463
25/05/2019 14:12:25.776,2455
25/05/2019 14:12:25.780,2459
25/05/2019 14:12:25.784,2471
25/05/2019 14:12:25.788,2487
25/05/2019 14:12:25.792,2507
25/05/2019 14:12:25.796,2515
25/05/2019 14:12:25.800,2519
25/05/2019 14:12:25.804,2515
25/05/2019 14:12:25.808,2519
25/05/2019 14:12:25.812,2531
25/05/2019 14:12:25.816,2527
25/05/2019 14:12:25.820,2543
25/05/2019 14:12:25.824,2539
25/05/2019 14:12:25.828,2535
25/05/2019 14:12:25.832,2527
25/05/2019 14:12:25.836,2555
25/05/2019 14:12:25.840,2567
25/05/2019 14:12:25.844,2575
25/05/2019 14:12:25.848,2583
25/05/2019 14:12:25.852,2603
25/05/2019 14:12:25.856,2619
25/05/2019 14:12:25.860,2579
25/05/2019 14:12:25.864,2519
25/05/2019 14:12:25.868,2495
25/05/2019 14:12:25.872,2507
25/05/2019 14:12:25.876,2515
25/05/2019 14:12:25.880,2519
25/05/2019 14:12:25.884,2527
25/05/2019 14:12:25.888,2523
25/05/2019 14:12:25.892,2583
25/05/2019 14:12:25.896,2639
25/05/2019 14:12:25.900,2659
25/05/2019 14:12:25.904,2647
25/05/2019 14:12:25.908,2639
25/05/2019 14:12:25.912,2659
25/05/2019 14:12:25.916,2651
25/05/2019 14:12:25.920,2599
25/05/2019 14:12:25.924,2539
25/05/2019 14:12:25.928,2507
25/05/2019 14:12:25.932,2511
25/05/2019 14:12:25.936,2531
25/05/2019 14:12:25.940,2543
25/05/2019 14:12:25.944,2575
25/05/2019 14:12:25.948,2591
25/05/2019 14:12:25.952,2599
25/05/2019 14:12:25.956,2591
25/05/2019 14:12:25.960,2583
25/05/2019 14:12:25.964,2599
25/05/2019 14:12:25.968,2643
25/05/2019 14:12:25.972,2691
25/05/2019 14:12:25.976,2735
25/05/2019 14:12:25.980,2767
25/05/2019 14:12:25.984,2807
25/05/2019 14:12:25.988,2803
25/05/2019 14:12:25.992,2819
25/05/2019 14:12:25.996,2843
25/05/2019 14:12:26.000,2859
25/05/2019 14:12:26.004,2895
25/05/2019 14:12:26.008,2783
25/05/2019 14:12:26.012,2651
25/05/2019 14:12:26.016,2607
25/05/2019 14:12:26.020,2619
25/05/2019 14:12:26.024,2583
25/05/2019 14:12:26.028,2547
25/05/2019 14:12:26.032,2495
25/05/2019 14:12:26.036,2463
25/05/2019 14:12:26.040,2419
25/05/2019 14:12:26.044,2415
25/05/2019 14:12:26.048,2419
25/05/2019 14:12:26.052,2431
25/05/2019 14:12:26.056,2431
25/05/2019 14:12:26.060,2443
25/05/2019 14:12:26.064,2507
25/05/2019 14:12:26.068,2551
25/05/2019 14:12:26.072,2651
25/05/2019 14:12:26.076,2739
25/05/2019 14:12:26.080,2795
25/05/2019 14:12:26.084,2759
25/05/2019 14:12:26.088,2671
25/05/2019 14:12:26.092,2607
25/05/2019 14:12:26.096,2567
25/05/2019 14:12:26.100,2531
25/05/2019 14:12:26.104,2483
25/05/2019 14:12:26.108,2435
25/05/2019 14:12:26.112,2407
25/05/2019 14:12:26.116,2371
25/05/2019 14:12:26.120,2387
25/05/2019 14:12:26.124,2407
25/05/2019 14:12:26.128,2419
25/05/2019 14:12:26.132,2383
25/05/2019 14:12:26.136,2319
25/05/2019 14:12:26.140,2235
25/05/2019 14:12:26.144,2183
25/05/2019 14:12:26.148,2147
25/05/2019 14:12:26.152,2127
25/05/2019 14:12:26.156,2123
25/05/2019 14:12:26.160,2135
25/05/2019 14:12:26.164,2191
25/05/2019 14:12:26.168,2251
25/05/2019 14:12:26.172,2335
25/05/2019 14:12:26.176,2415
25/05/2019 14:12:26.180,2491
25/05/2019 14:12:26.184,2567
25/05/2019 14:12:26.188,2623
25/05/2019 14:12:26.192,2651
25/05/2019 14:12:26.196,2663
25/05/2019 14:12:26.200,2571
25/05/2019 14:12:26.204,2543
25/05/2019 14:12:26.208,2687
25/05/2019 14:12:26.212,2835
25/05/2019 14:12:26.216,2963
25/05/2019 14:12:26.220,3047
25/05/2019 14:12:26.224,3071
25/05/2019 14:12:26.228,3063
25/05/2019 14:12:26.232,3003
25/05/2019 14:12:26.236,2931
25/05/2019 14:12:26.240,2831
25/05/2019 14:12:26.244,2719
25/05/2019 14:12:26.248,2627
25/05/2019 14:12:26.252,2555
25/05/2019 14:12:26.256,2503
25/05/2019 14:12:26.260,2463
25/05/2019 14:12:26.264,2423
25/05/2019 14:12:26.268,2391
25/05/2019 14:12:26.272,2355
25/05/2019 14:12:26.276,2327
25/05/2019 14:12:26.280,2311
25/05/2019 14:12:26.284,2283
25/05/2019 14:12:26.288,2267
25/05/2019 14:12:26.292,2255
25/05/2019 14:12:26.296,2259
25/05/2019 14:12:26.300,2287
25/05/2019 14:12:26.304,2319
25/05/2019 14:12:26.308,2343
25/05/2019 14:12:26.312,2363
25/05/2019 14:12:26.316,2379
25/05/2019 14:12:26.320,2399
25/05/2019 14:12:26.324,2423
25/05/2019 14:12:26.328,2447
25/05/2019 14:12:26.332,2487
25/05/2019 14:12:26.336,2531
25/05/2019 14:12:26.340,2543
25/05/2019 14:12:26.344,2539
25/05/2019 14:12:26.348,2503
25/05/2019 14:12:26.352,2483
25/05/2019 14:12:26.356,2451
25/05/2019 14:12:26.360,2411
25/05/2019 14:12:26.364,2363
25/05/2019 14:12:26.368,2323
25/05/2019 14:12:26.372,2271
25/05/2019 14:12:26.376,2219
25/05/2019 14:12:26.380,2159
25/05/2019 14:12:26.384,2035
25/05/2019 14:12:26.388,1875
25/05/2019 14:12:26.392,1779
25/05/2019 14:12:26.396,1775
25/05/2019 14:12:26.400,1831
25/05/2019 14:12:26.404,1943
25/05/2019 14:12:26.408,2159
25/05/2019 14:12:26.412,2427
25/05/2019 14:12:26.416,2719
25/05/2019 14:12:26.420,2735
25/05/2019 14:12:26.424,2583
25/05/2019 14:12:26.428,2407
25/05/2019 14:12:26.432,2259
25/05/2019 14:12:26.436,2143
25/05/2019 14:12:26.440,2067
25/05/2019 14:12:26.444,2019
25/05/2019 14:12:26.448,1995
25/05/2019 14:12:26.452,1983
25/05/2019 14:12:26.456,1975
25/05/2019 14:12:26.460,1971
25/05/2019 14:12:26.464,1963
25/05/2019 14:12:26.468,1955
25/05/2019 14:12:26.472,1947
25/05/2019 14:12:26.476,1963
25/05/2019 14:12:26.480,1991
25/05/2019 14:12:26.484,2039
25/05/2019 14:12:26.488,2103
25/05/2019 14:12:26.492,2159
25/05/2019 14:12:26.496,2219
25/05/2019 14:12:26.500,2287
25/05/2019 14:12:26.504,2343
25/05/2019 14:12:26.508,2387
25/05/2019 14:12:26.512,2403
25/05/2019 14:12:26.516,2423
25/05/2019 14:12:26.520,2427
25/05/2019 14:12:26.524,2419
25/05/2019 14:12:26.528,2403
25/05/2019 14:12:26.532,2387
25/05/2019 14:12:26.536,2387
25/05/2019 14:12:26.540,2395
25/05/2019 14:12:26.544,2403
25/05/2019 14:12:26.548,2399
25/05/2019 14:12:26.552,2391
25/05/2019 14:12:26.556,2371
25/05/2019 14:12:26.560,2339
25/05/2019 14:12:26.564,2327
25/05/2019 14:12:26.568,2351
25/05/2019 14:12:26.572,2399
25/05/2019 14:12:26.576,2427
25/05/2019 14:12:26.580,2455
25/05/2019 14:12:26.584,2467
25/05/2019 14:12:26.588,2475
25/05/2019 14:12:26.592,2479
25/05/2019 14:12:26.596,2495
25/05/2019 14:12:26.600,2523
25/05/2019 14:12:26.604,2543
25/05/2019 14:12:26.608,2559
25/05/2019 14:12:26.612,2559
25/05/2019 14:12:26.616,2559
25/05/2019 14:12:26.620,2555
25/05/2019 14:12:26.624,2555
25/05/2019 14:12:26.628,2547
25/05/2019 14:12:26.632,2543
25/05/2019 14:12:26.636,2559
25/05/2019 14:12:26.640,2563
25/05/2019 14:12:26.644,2563
25/05/2019 14:12:26.648,2579
25/05/2019 14:12:26.652,2599
25/05/2019 14:12:26.656,2619
25/05/2019 14:12:26.660,2627
25/05/2019 14:12:26.664,2623
25/05/2019 14:12:26.668,2631
25/05/2019 14:12:26.672,2619
25/05/2019 14:12:26.676,2611
25/05/2019 14:12:26.680,2615
25/05/2019 14:12:26.684,2619
25/05/2019 14:12:26.688,2603
25/05/2019 14:12:26.692,2591
25/05/2019 14:12:26.696,2587
25/05/2019 14:12:26.700,2575
25/05/2019 14:12:26.704,2559
25/05/2019 14:12:26.708,2543
25/05/2019 14:12:26.712,2515
25/05/2019 14:12:26.716,2511
25/05/2019 14:12:26.720,2515
25/05/2019 14:12:26.724,2503
25/05/2019 14:12:26.728,2483
25/05/2019 14:12:26.732,2455
25/05/2019 14:12:26.736,2431
25/05/2019 14:12:26.740,2419
25/05/2019 14:12:26.744,2423
25/05/2019 14:12:26.748,2411
25/05/2019 14:12:26.752,2387
25/05/2019 14:12:26.756,2367
25/05/2019 14:12:26.760,2363
25/05/2019 14:12:26.764,2367
25/05/2019 14:12:26.768,2363
25/05/2019 14:12:26.772,2363
25/05/2019 14:12:26.776,2367
25/05/2019 14:12:26.780,2383
25/05/2019 14:12:26.784,2399
25/05/2019 14:12:26.788,2403
25/05/2019 14:12:26.792,2415
25/05/2019 14:12:26.796,2427
25/05/2019 14:12:26.800,2455
25/05/2019 14:12:26.804,2467
25/05/2019 14:12:26.808,2483
25/05/2019 14:12:26.812,2483
25/05/2019 14:12:26.816,2483
25/05/2019 14:12:26.820,2491
25/05/2019 14:12:26.824,2487
25/05/2019 14:12:26.828,2491
25/05/2019 14:12:26.832,2495
25/05/2019 14:12:26.836,2495
25/05/2019 14:12:26.840,2491
25/05/2019 14:12:26.844,2483
25/05/2019 14:12:26.848,2475
25/05/2019 14:12:26.852,2483
25/05/2019 14:12:26.856,2503
25/05/2019 14:12:26.860,2499
25/05/2019 14:12:26.864,2491
25/05/2019 14:12:26.868,2479
25/05/2019 14:12:26.872,2475
25/05/2019 14:12:26.876,2503
25/05/2019 14:12:26.880,2479
25/05/2019 14:12:26.884,2451
25/05/2019 14:12:26.888,2451
25/05/2019 14:12:26.892,2471
25/05/2019 14:12:26.896,2491
25/05/2019 14:12:26.900,2491
25/05/2019 14:12:26.904,2467
25/05/2019 14:12:26.908,2455
25/05/2019 14:12:26.912,2451
25/05/2019 14:12:26.916,2463
25/05/2019 14:12:26.920,2471
25/05/2019 14:12:26.924,2487
25/05/2019 14:12:26.928,2491
25/05/2019 14:12:26.932,2491
25/05/2019 14:12:26.936,2471
25/05/2019 14:12:26.940,2467
25/05/2019 14:12:26.944,2459
25/05/2019 14:12:26.948,2467
25/05/2019 14:12:26.952,2443
25/05/2019 14:12:26.956,2375
25/05/2019 14:12:26.960,2359
25/05/2019 14:12:26.964,2335
25/05/2019 14:12:26.968,2347
25/05/2019 14:12:26.972,2371
25/05/2019 14:12:26.976,2391
25/05/2019 14:12:26.980,2391
25/05/2019 14:12:26.984,2379
25/05/2019 14:12:26.988,2383
25/05/2019 14:12:26.992,2407
25/05/2019 14:12:26.996,2371
25/05/2019 14:12:27.000,2359
25/05/2019 14:12:27.004,2367
25/05/2019 14:12:27.008,2367
25/05/2019 14:12:27.012,2371
25/05/2019 14:12:27.016,2383
25/05/2019 14:12:27.020,2387
25/05/2019 14:12:27.024,2399
25/05/2019 14:12:27.028,2411
25/05/2019 14:12:27.032,2411
25/05/2019 14:12:27.036,2403
25/05/2019 14:12:27.040,2399
25/05/2019 14:12:27.044,2375
25/05/2019 14:12:27.048,2375
25/05/2019 14:12:27.052,2391
25/05/2019 14:12:27.056,2391
25/05/2019 14:12:27.060,2391
25/05/2019 14:12:27.064,2403
25/05/2019 14:12:27.068,2407
25/05/2019 14:12:27.072,2407
25/05/2019 14:12:27.076,2407
25/05/2019 14:12:27.080,2411
25/05/2019 14:12:27.084,2415
25/05/2019 14:12:27.088,2415
25/05/2019 14:12:27.092,2415
25/05/2019 14:12:27.096,2423
25/05/2019 14:12:27.100,2415
25/05/2019 14:12:27.104,2407
25/05/2019 14:12:27.108,2387
25/05/2019 14:12:27.112,2347
25/05/2019 14:12:27.116,2315
25/05/2019 14:12:27.120,2311
25/05/2019 14:12:27.124,2359
25/05/2019 14:12:27.128,2511
25/05/2019 14:12:27.132,2703
25/05/2019 14:12:27.136,2871
25/05/2019 14:12:27.140,2815
25/05/2019 14:12:27.144,2687
25/05/2019 14:12:27.148,2555
25/05/2019 14:12:27.152,2447
25/05/2019 14:12:27.156,2383
25/05/2019 14:12:27.160,2339
25/05/2019 14:12:27.164,2311
25/05/2019 14:12:27.168,2291
25/05/2019 14:12:27.172,2275
25/05/2019 14:12:27.176,2271
25/05/2019 14:12:27.180,2255
25/05/2019 14:12:27.184,2207
25/05/2019 14:12:27.188,2147
25/05/2019 14:12:27.192,2147
25/05/2019 14:12:27.196,2175
25/05/2019 14:12:27.200,2215
25/05/2019 14:12:27.204,2275
25/05/2019 14:12:27.208,2355
25/05/2019 14:12:27.212,2435
25/05/2019 14:12:27.216,2467
25/05/2019 14:12:27.220,2431
25/05/2019 14:12:27.224,2431
25/05/2019 14:12:27.228,2427
25/05/2019 14:12:27.232,2439
25/05/2019 14:12:27.236,2451
25/05/2019 14:12:27.240,2483
25/05/2019 14:12:27.244,2511
25/05/2019 14:12:27.248,2511
25/05/2019 14:12:27.252,2487
25/05/2019 14:12:27.256,2483
25/05/2019 14:12:27.260,2487
25/05/2019 14:12:27.264,2483
25/05/2019 14:12:27.268,2471
25/05/2019 14:12:27.272,2467
25/05/2019 14:12:27.276,2463
25/05/2019 14:12:27.280,2463
25/05/2019 14:12:27.284,2487
25/05/2019 14:12:27.288,2503
25/05/2019 14:12:27.292,2499
25/05/2019 14:12:27.296,2487
25/05/2019 14:12:27.300,2491
25/05/2019 14:12:27.304,2491
25/05/2019 14:12:27.308,2483
25/05/2019 14:12:27.312,2471
25/05/2019 14:12:27.316,2467
25/05/2019 14:12:27.320,2479
25/05/2019 14:12:27.324,2483
25/05/2019 14:12:27.328,2479
25/05/2019 14:12:27.332,2475
25/05/2019 14:12:27.336,2463
25/05/2019 14:12:27.340,2455
25/05/2019 14:12:27.344,2459
25/05/2019 14:12:27.348,2455
25/05/2019 14:12:27.352,2423
25/05/2019 14:12:27.356,2423
25/05/2019 14:12:27.360,2439
25/05/2019 14:12:27.364,2439
25/05/2019 14:12:27.368,2423
25/05/2019 14:12:27.372,2419
25/05/2019 14:12:27.376,2427
25/05/2019 14:12:27.380,2427
25/05/2019 14:12:27.384,2431
25/05/2019 14:12:27.388,2439
25/05/2019 14:12:27.392,2451
25/05/2019 14:12:27.396,2459
25/05/2019 14:12:27.400,2479
25/05/2019 14:12:27.404,2479
25/05/2019 14:12:27.408,2475
25/05/2019 14:12:27.412,2471
25/05/2019 14:12:27.416,2471
25/05/2019 14:12:27.420,2455
25/05/2019 14:12:27.424,2431
25/05/2019 14:12:27.428,2415
25/05/2019 14:12:27.432,2407
25/05/2019 14:12:27.436,2395
25/05/2019 14:12:27.440,2387
25/05/2019 14:12:27.444,2383
25/05/2019 14:12:27.448,2367
25/05/2019 14:12:27.452,2339
25/05/2019 14:12:27.456,2319
25/05/2019 14:12:27.460,2307
25/05/2019 14:12:27.464,2319
25/05/2019 14:12:27.468,2331
25/05/2019 14:12:27.472,2359
25/05/2019 14:12:27.476,2379
25/05/2019 14:12:27.480,2391
25/05/2019 14:12:27.484,2379
25/05/2019 14:12:27.488,2371
25/05/2019 14:12:27.492,2375
25/05/2019 14:12:27.496,2367
25/05/2019 14:12:27.500,2359
25/05/2019 14:12:27.504,2379
25/05/2019 14:12:27.508,2395
25/05/2019 14:12:27.512,2391
25/05/2019 14:12:27.516,2391
25/05/2019 14:12:27.520,2391
25/05/2019 14:12:27.524,2367
25/05/2019 14:12:27.528,2351
25/05/2019 14:12:27.532,2343
25/05/2019 14:12:27.536,2335
25/05/2019 14:12:27.540,2331
25/05/2019 14:12:27.544,2319
25/05/2019 14:12:27.548,2311
25/05/2019 14:12:27.552,2291
25/05/2019 14:12:27.556,2295
25/05/2019 14:12:27.560,2299
25/05/2019 14:12:27.564,2311
25/05/2019 14:12:27.568,2315
25/05/2019 14:12:27.572,2311
25/05/2019 14:12:27.576,2323
25/05/2019 14:12:27.580,2323
25/05/2019 14:12:27.584,2331
25/05/2019 14:12:27.588,2331
25/05/2019 14:12:27.592,2323
25/05/2019 14:12:27.596,2327
25/05/2019 14:12:27.600,2335
25/05/2019 14:12:27.604,2331
25/05/2019 14:12:27.608,2355
25/05/2019 14:12:27.612,2375
25/05/2019 14:12:27.616,2379
25/05/2019 14:12:27.620,2391
25/05/2019 14:12:27.624,2391
25/05/2019 14:12:27.628,2395
25/05/2019 14:12:27.632,2395
25/05/2019 14:12:27.636,2391
25/05/2019 14:12:27.640,2379
25/05/2019 14:12:27.644,2379
25/05/2019 14:12:27.648,2379
25/05/2019 14:12:27.652,2383
25/05/2019 14:12:27.656,2395
25/05/2019 14:12:27.660,2383
25/05/2019 14:12:27.664,2383
25/05/2019 14:12:27.668,2387
25/05/2019 14:12:27.672,2391
25/05/2019 14:12:27.676,2375
25/05/2019 14:12:27.680,2387
25/05/2019 14:12:27.684,2383
25/05/2019 14:12:27.688,2383
25/05/2019 14:12:27.692,2387
25/05/2019 14:12:27.696,2399
25/05/2019 14:12:27.700,2403
25/05/2019 14:12:27.704,2391
25/05/2019 14:12:27.708,2403
25/05/2019 14:12:27.712,2399
25/05/2019 14:12:27.716,2411
25/05/2019 14:12:27.720,2407
25/05/2019 14:12:27.724,2407
25/05/2019 14:12:27.728,2411
25/05/2019 14:12:27.732,2411
25/05/2019 14:12:27.736,2419
25/05/2019 14:12:27.740,2403
25/05/2019 14:12:27.744,2391
25/05/2019 14:12:27.748,2391
25/05/2019 14:12:27.752,2383
25/05/2019 14:12:27.756,2379
25/05/2019 14:12:27.760,2379
25/05/2019 14:12:27.764,2371
25/05/2019 14:12:27.768,2371
25/05/2019 14:12:27.772,2363
25/05/2019 14:12:27.776,2367
25/05/2019 14:12:27.780,2375
25/05/2019 14:12:27.784,2379
25/05/2019 14:12:27.788,2371
25/05/2019 14:12:27.792,2363
25/05/2019 14:12:27.796,2359
25/05/2019 14:12:27.800,2363
25/05/2019 14:12:27.804,2371
25/05/2019 14:12:27.808,2363
25/05/2019 14:12:27.812,2351
25/05/2019 14:12:27.816,2359
25/05/2019 14:12:27.820,2347
25/05/2019 14:12:27.824,2339
25/05/2019 14:12:27.828,2335
25/05/2019 14:12:27.832,2335
25/05/2019 14:12:27.836,2295
25/05/2019 14:12:27.840,2247
25/05/2019 14:12:27.844,2203
25/05/2019 14:12:27.848,2175
25/05/2019 14:12:27.852,2207
25/05/2019 14:12:27.856,2295
25/05/2019 14:12:27.860,2467
25/05/2019 14:12:27.864,2699
25/05/2019 14:12:27.868,2795
25/05/2019 14:12:27.872,2699
25/05/2019 14:12:27.876,2551
25/05/2019 14:12:27.880,2419
25/05/2019 14:12:27.884,2335
25/05/2019 14:12:27.888,2303
25/05/2019 14:12:27.892,2287
25/05/2019 14:12:27.896,2303
25/05/2019 14:12:27.900,2323
25/05/2019 14:12:27.904,2335
25/05/2019 14:12:27.908,2331
25/05/2019 14:12:27.912,2335
25/05/2019 14:12:27.916,2323
25/05/2019 14:12:27.920,2335
25/05/2019 14:12:27.924,2335
25/05/2019 14:12:27.928,2331
25/05/2019 14:12:27.932,2323
25/05/2019 14:12:27.936,2331
25/05/2019 14:12:27.940,2347
25/05/2019 14:12:27.944,2343
25/05/2019 14:12:27.948,2355
25/05/2019 14:12:27.952,2347
25/05/2019 14:12:27.956,2351
25/05/2019 14:12:27.960,2359
25/05/2019 14:12:27.964,2363
25/05/2019 14:12:27.968,2379
25/05/2019 14:12:27.972,2379
25/05/2019 14:12:27.976,2387
25/05/2019 14:12:27.980,2387
25/05/2019 14:12:27.984,2391
25/05/2019 14:12:27.988,2395
25/05/2019 14:12:27.992,2399
25/05/2019 14:12:27.996,2395
25/05/2019 14:12:28.000,2383
25/05/2019 14:12:28.004,2379
25/05/2019 14:12:28.008,2383
25/05/2019 14:12:28.012,2387
25/05/2019 14:12:28.016,2371
25/05/2019 14:12:28.020,2371
25/05/2019 14:12:28.024,2363
25/05/2019 14:12:28.028,2367
25/05/2019 14:12:28.032,2375
25/05/2019 14:12:28.036,2367
25/05/2019 14:12:28.040,2367
25/05/2019 14:12:28.044,2367
25/05/2019 14:12:28.048,2359
25/05/2019 14:12:28.052,2351
25/05/2019 14:12:28.056,2351
25/05/2019 14:12:28.060,2351
25/05/2019 14:12:28.064,2351
25/05/2019 14:12:28.068,2351
25/05/2019 14:12:28.072,2343
25/05/2019 14:12:28.076,2347
25/05/2019 14:12:28.080,2355
25/05/2019 14:12:28.084,2359
25/05/2019 14:12:28.088,2363
25/05/2019 14:12:28.092,2367
25/05/2019 14:12:28.096,2375
25/05/2019 14:12:28.100,2367
25/05/2019 14:12:28.104,2367
25/05/2019 14:12:28.108,2367
25/05/2019 14:12:28.112,2371
25/05/2019 14:12:28.116,2375
25/05/2019 14:12:28.120,2375
25/05/2019 14:12:28.124,2367
25/05/2019 14:12:28.128,2367
25/05/2019 14:12:28.132,2367
25/05/2019 14:12:28.136,2375
25/05/2019 14:12:28.140,2387
25/05/2019 14:12:28.144,2391
25/05/2019 14:12:28.148,2387
25/05/2019 14:12:28.152,2383
25/05/2019 14:12:28.156,2371
25/05/2019 14:12:28.160,2375
25/05/2019 14:12:28.164,2387
25/05/2019 14:12:28.168,2399
25/05/2019 14:12:28.172,2383
25/05/2019 14:12:28.176,2375
25/05/2019 14:12:28.180,2363
25/05/2019 14:12:28.184,2359
25/05/2019 14:12:28.188,2355
25/05/2019 14:12:28.192,2359
25/05/2019 14:12:28.196,2343
25/05/2019 14:12:28.200,2331
25/05/2019 14:12:28.204,2343
25/05/2019 14:12:28.208,2355
25/05/2019 14:12:28.212,2343
25/05/2019 14:12:28.216,2343
25/05/2019 14:12:28.220,2343
25/05/2019 14:12:28.224,2343
25/05/2019 14:12:28.228,2335
25/05/2019 14:12:28.232,2335
25/05/2019 14:12:28.236,2331
25/05/2019 14:12:28.240,2327
25/05/2019 14:12:28.244,2335
25/05/2019 14:12:28.248,2339
25/05/2019 14:12:28.252,2347
25/05/2019 14:12:28.256,2347
25/05/2019 14:12:28.260,2351
25/05/2019 14:12:28.264,2351
25/05/2019 14:12:28.268,2347
25/05/2019 14:12:28.272,2351
25/05/2019 14:12:28.276,2351
25/05/2019 14:12:28.280,2347
25/05/2019 14:12:28.284,2343
25/05/2019 14:12:28.288,2347
25/05/2019 14:12:28.292,2339
25/05/2019 14:12:28.296,2335
25/05/2019 14:12:28.300,2335
25/05/2019 14:12:28.304,2327
25/05/2019 14:12:28.308,2319
25/05/2019 14:12:28.312,2323
25/05/2019 14:12:28.316,2323
25/05/2019 14:12:28.320,2319
25/05/2019 14:12:28.324,2327
25/05/2019 14:12:28.328,2339
25/05/2019 14:12:28.332,2339
25/05/2019 14:12:28.336,2339
25/05/2019 14:12:28.340,2339
25/05/2019 14:12:28.344,2335
25/05/2019 14:12:28.348,2343
25/05/2019 14:12:28.352,2347
25/05/2019 14:12:28.356,2339
25/05/2019 14:12:28.360,2331
25/05/2019 14:12:28.364,2335
25/05/2019 14:12:28.368,2335
25/05/2019 14:12:28.372,2335
25/05/2019 14:12:28.376,2335
25/05/2019 14:12:28.380,2335
25/05/2019 14:12:28.384,2339
25/05/2019 14:12:28.388,2347
25/05/2019 14:12:28.392,2355
25/05/2019 14:12:28.396,2351
25/05/2019 14:12:28.400,2351
25/05/2019 14:12:28.404,2339
25/05/2019 14:12:28.408,2335
25/05/2019 14:12:28.412,2331
25/05/2019 14:12:28.416,2343
25/05/2019 14:12:28.420,2347
25/05/2019 14:12:28.424,2347
25/05/2019 14:12:28.428,2331
25/05/2019 14:12:28.432,2323
25/05/2019 14:12:28.436,2327
25/05/2019 14:12:28.440,2327
25/05/2019 14:12:28.444,2331
25/05/2019 14:12:28.448,2335
25/05/2019 14:12:28.452,2347
25/05/2019 14:12:28.456,2343
25/05/2019 14:12:28.460,2343
25/05/2019 14:12:28.464,2335
25/05/2019 14:12:28.468,2327
25/05/2019 14:12:28.472,2323
25/05/2019 14:12:28.476,2331
25/05/2019 14:12:28.480,2327
25/05/2019 14:12:28.484,2303
25/05/2019 14:12:28.488,2303
25/05/2019 14:12:28.492,2319
25/05/2019 14:12:28.496,2331
25/05/2019 14:12:28.500,2331
25/05/2019 14:12:28.504,2327
25/05/2019 14:12:28.508,2315
25/05/2019 14:12:28.512,2311
25/05/2019 14:12:28.516,2315
25/05/2019 14:12:28.520,2311
25/05/2019 14:12:28.524,2307
25/05/2019 14:12:28.528,2307
25/05/2019 14:12:28.532,2291
25/05/2019 14:12:28.536,2247
25/05/2019 14:12:28.540,2191
25/05/2019 14:12:28.544,2163
25/05/2019 14:12:28.548,2151
25/05/2019 14:12:28.552,2175
25/05/2019 14:12:28.556,2279
25/05/2019 14:12:28.560,2447
25/05/2019 14:12:28.564,2671
25/05/2019 14:12:28.568,2711
25/05/2019 14:12:28.572,2599
25/05/2019 14:12:28.576,2463
25/05/2019 14:12:28.580,2343
25/05/2019 14:12:28.584,2251
25/05/2019 14:12:28.588,2211
25/05/2019 14:12:28.592,2211
25/05/2019 14:12:28.596,2243
25/05/2019 14:12:28.600,2263
25/05/2019 14:12:28.604,2267
25/05/2019 14:12:28.608,2283
25/05/2019 14:12:28.612,2291
25/05/2019 14:12:28.616,2291
25/05/2019 14:12:28.620,2299
25/05/2019 14:12:28.624,2295
25/05/2019 14:12:28.628,2291
25/05/2019 14:12:28.632,2287
25/05/2019 14:12:28.636,2295
25/05/2019 14:12:28.640,2295
25/05/2019 14:12:28.644,2315
25/05/2019 14:12:28.648,2323
25/05/2019 14:12:28.652,2319
25/05/2019 14:12:28.656,2323
25/05/2019 14:12:28.660,2331
25/05/2019 14:12:28.664,2319
25/05/2019 14:12:28.668,2315
25/05/2019 14:12:28.672,2319
25/05/2019 14:12:28.676,2319
25/05/2019 14:12:28.680,2327
25/05/2019 14:12:28.684,2323
25/05/2019 14:12:28.688,2319
25/05/2019 14:12:28.692,2315
25/05/2019 14:12:28.696,2323
25/05/2019 14:12:28.700,2323
25/05/2019 14:12:28.704,2319
25/05/2019 14:12:28.708,2319
25/05/2019 14:12:28.712,2315
25/05/2019 14:12:28.716,2315
25/05/2019 14:12:28.720,2323
25/05/2019 14:12:28.724,2315
25/05/2019 14:12:28.728,2315
25/05/2019 14:12:28.732,2303
25/05/2019 14:12:28.736,2307
25/05/2019 14:12:28.740,2299
25/05/2019 14:12:28.744,2311
25/05/2019 14:12:28.748,2303
25/05/2019 14:12:28.752,2311
25/05/2019 14:12:28.756,2315
25/05/2019 14:12:28.760,2319
25/05/2019 14:12:28.764,2323
25/05/2019 14:12:28.768,2319
25/05/2019 14:12:28.772,2315
25/05/2019 14:12:28.776,2311
25/05/2019 14:12:28.780,2319
25/05/2019 14:12:28.784,2335
25/05/2019 14:12:28.788,2335
25/05/2019 14:12:28.792,2331
25/05/2019 14:12:28.796,2331
25/05/2019 14:12:28.800,2327
25/05/2019 14:12:28.804,2323
25/05/2019 14:12:28.808,2327
25/05/2019 14:12:28.812,2327
25/05/2019 14:12:28.816,2331
25/05/2019 14:12:28.820,2331
25/05/2019 14:12:28.824,2331
25/05/2019 14:12:28.828,2335
25/05/2019 14:12:28.832,2343
25/05/2019 14:12:28.836,2355
25/05/2019 14:12:28.840,2343
25/05/2019 14:12:28.844,2343
25/05/2019 14:12:28.848,2343
25/05/2019 14:12:28.852,2347
25/05/2019 14:12:28.856,2351
25/05/2019 14:12:28.860,2335
25/05/2019 14:12:28.864,2323
25/05/2019 14:12:28.868,2315
25/05/2019 14:12:28.872,2303
25/05/2019 14:12:28.876,2303
25/05/2019 14:12:28.880,2315
25/05/2019 14:12:28.884,2319
25/05/2019 14:12:28.888,2303
25/05/2019 14:12:28.892,2291
25/05/2019 14:12:28.896,2291
25/05/2019 14:12:28.900,2287
25/05/2019 14:12:28.904,2291
25/05/2019 14:12:28.908,2295
25/05/2019 14:12:28.912,2303
25/05/2019 14:12:28.916,2307
25/05/2019 14:12:28.920,2311
25/05/2019 14:12:28.924,2311
25/05/2019 14:12:28.928,2307
25/05/2019 14:12:28.932,2311
25/05/2019 14:12:28.936,2307
25/05/2019 14:12:28.940,2299
25/05/2019 14:12:28.944,2295
25/05/2019 14:12:28.948,2295
25/05/2019 14:12:28.952,2295
25/05/2019 14:12:28.956,2295
25/05/2019 14:12:28.960,2299
25/05/2019 14:12:28.964,2299
25/05/2019 14:12:28.968,2311
25/05/2019 14:12:28.972,2319
25/05/2019 14:12:28.976,2319
25/05/2019 14:12:28.980,2307
25/05/2019 14:12:28.984,2311
25/05/2019 14:12:28.988,2311
25/05/2019 14:12:28.992,2315
25/05/2019 14:12:28.996,2311
25/05/2019 14:12:29.000,2315
25/05/2019 14:12:29.004,2315
25/05/2019 14:12:29.008,2311
25/05/2019 14:12:29.012,2311
25/05/2019 14:12:29.016,2315
25/05/2019 14:12:29.020,2311
25/05/2019 14:12:29.024,2307
25/05/2019 14:12:29.028,2303
25/05/2019 14:12:29.032,2311
25/05/2019 14:12:29.036,2315
25/05/2019 14:12:29.040,2315
25/05/2019 14:12:29.044,2299
25/05/2019 14:12:29.048,2303
25/05/2019 14:12:29.052,2303
25/05/2019 14:12:29.056,2295
25/05/2019 14:12:29.060,2303
25/05/2019 14:12:29.064,2319
25/05/2019 14:12:29.068,2331
25/05/2019 14:12:29.072,2327
25/05/2019 14:12:29.076,2315
25/05/2019 14:12:29.080,2307
25/05/2019 14:12:29.084,2303
25/05/2019 14:12:29.088,2303
25/05/2019 14:12:29.092,2303
25/05/2019 14:12:29.096,2303
25/05/2019 14:12:29.100,2295
25/05/2019 14:12:29.104,2299
25/05/2019 14:12:29.108,2291
25/05/2019 14:12:29.112,2287
25/05/2019 14:12:29.116,2287
25/05/2019 14:12:29.120,2303
25/05/2019 14:12:29.124,2299
25/05/2019 14:12:29.128,2283
25/05/2019 14:12:29.132,2283
25/05/2019 14:12:29.136,2283
25/05/2019 14:12:29.140,2291
25/05/2019 14:12:29.144,2295
25/05/2019 14:12:29.148,2295
25/05/2019 14:12:29.152,2295
25/05/2019 14:12:29.156,2291
25/05/2019 14:12:29.160,2287
25/05/2019 14:12:29.164,2291
25/05/2019 14:12:29.168,2299
25/05/2019 14:12:29.172,2311
25/05/2019 14:12:29.176,2299
25/05/2019 14:12:29.180,2295
25/05/2019 14:12:29.184,2303
25/05/2019 14:12:29.188,2307
25/05/2019 14:12:29.192,2307
25/05/2019 14:12:29.196,2291
25/05/2019 14:12:29.200,2295
25/05/2019 14:12:29.204,2287
25/05/2019 14:12:29.208,2291
25/05/2019 14:12:29.212,2291
25/05/2019 14:12:29.216,2283
25/05/2019 14:12:29.220,2275
25/05/2019 14:12:29.224,2267
25/05/2019 14:12:29.228,2267
25/05/2019 14:12:29.232,2279
25/05/2019 14:12:29.236,2283
25/05/2019 14:12:29.240,2287
25/05/2019 14:12:29.244,2279
25/05/2019 14:12:29.248,2275
25/05/2019 14:12:29.252,2271
25/05/2019 14:12:29.256,2259
25/05/2019 14:12:29.260,2227
25/05/2019 14:12:29.264,2171
25/05/2019 14:12:29.268,2131
25/05/2019 14:12:29.272,2099
25/05/2019 14:12:29.276,2111
25/05/2019 14:12:29.280,2191
25/05/2019 14:12:29.284,2351
25/05/2019 14:12:29.288,2583
25/05/2019 14:12:29.292,2711
25/05/2019 14:12:29.296,2627
25/05/2019 14:12:29.300,2479
25/05/2019 14:12:29.304,2351
25/05/2019 14:12:29.308,2255
25/05/2019 14:12:29.312,2215
25/05/2019 14:12:29.316,2187
25/05/2019 14:12:29.320,2195
25/05/2019 14:12:29.324,2235
25/05/2019 14:12:29.328,2251
25/05/2019 14:12:29.332,2243
25/05/2019 14:12:29.336,2239
25/05/2019 14:12:29.340,2243
25/05/2019 14:12:29.344,2255
25/05/2019 14:12:29.348,2251
25/05/2019 14:12:29.352,2251
25/05/2019 14:12:29.356,2235
25/05/2019 14:12:29.360,2223
25/05/2019 14:12:29.364,2235
25/05/2019 14:12:29.368,2271
25/05/2019 14:12:29.372,2287
25/05/2019 14:12:29.376,2283
25/05/2019 14:12:29.380,2279
25/05/2019 14:12:29.384,2271
25/05/2019 14:12:29.388,2275
25/05/2019 14:12:29.392,2279
25/05/2019 14:12:29.396,2291
25/05/2019 14:12:29.400,2291
25/05/2019 14:12:29.404,2287
25/05/2019 14:12:29.408,2299
25/05/2019 14:12:29.412,2303
25/05/2019 14:12:29.416,2299
25/05/2019 14:12:29.420,2295
25/05/2019 14:12:29.424,2275
25/05/2019 14:12:29.428,2271
25/05/2019 14:12:29.432,2275
25/05/2019 14:12:29.436,2271
25/05/2019 14:12:29.440,2267
25/05/2019 14:12:29.444,2275
25/05/2019 14:12:29.448,2279
25/05/2019 14:12:29.452,2279
25/05/2019 14:12:29.456,2275
25/05/2019 14:12:29.460,2283
25/05/2019 14:12:29.464,2279
25/05/2019 14:12:29.468,2259
25/05/2019 14:12:29.472,2259
25/05/2019 14:12:29.476,2267
25/05/2019 14:12:29.480,2271
25/05/2019 14:12:29.484,2275
25/05/2019 14:12:29.488,2279
25/05/2019 14:12:29.492,2267
25/05/2019 14:12:29.496,2271
25/05/2019 14:12:29.500,2291
25/05/2019 14:12:29.504,2303
25/05/2019 14:12:29.508,2311
25/05/2019 14:12:29.512,2299
25/05/2019 14:12:29.516,2295
25/05/2019 14:12:29.520,2295
25/05/2019 14:12:29.524,2283
25/05/2019 14:12:29.528,2275
25/05/2019 14:12:29.532,2283
25/05/2019 14:12:29.536,2271
25/05/2019 14:12:29.540,2291
25/05/2019 14:12:29.544,2295
25/05/2019 14:12:29.548,2319
25/05/2019 14:12:29.552,2319
25/05/2019 14:12:29.556,2331
25/05/2019 14:12:29.560,2311
25/05/2019 14:12:29.564,2311
25/05/2019 14:12:29.568,2307
25/05/2019 14:12:29.572,2307
25/05/2019 14:12:29.576,2303
25/05/2019 14:12:29.580,2303
25/05/2019 14:12:29.584,2295
25/05/2019 14:12:29.588,2295
25/05/2019 14:12:29.592,2287
25/05/2019 14:12:29.596,2287
25/05/2019 14:12:29.600,2295
25/05/2019 14:12:29.604,2287
25/05/2019 14:12:29.608,2279
25/05/2019 14:12:29.612,2275
25/05/2019 14:12:29.616,2283
25/05/2019 14:12:29.620,2287
25/05/2019 14:12:29.624,2279
25/05/2019 14:12:29.628,2263
25/05/2019 14:12:29.632,2251
25/05/2019 14:12:29.636,2271
25/05/2019 14:12:29.640,2279
25/05/2019 14:12:29.644,2275
25/05/2019 14:12:29.648,2267
25/05/2019 14:12:29.652,2267
25/05/2019 14:12:29.656,2267
25/05/2019 14:12:29.660,2255
25/05/2019 14:12:29.664,2255
25/05/2019 14:12:29.668,2263
25/05/2019 14:12:29.672,2263
25/05/2019 14:12:29.676,2271
25/05/2019 14:12:29.680,2279
25/05/2019 14:12:29.684,2283
25/05/2019 14:12:29.688,2287
25/05/2019 14:12:29.692,2291
25/05/2019 14:12:29.696,2283
25/05/2019 14:12:29.700,2287
25/05/2019 14:12:29.704,2287
25/05/2019 14:12:29.708,2287
25/05/2019 14:12:29.712,2291
25/05/2019 14:12:29.716,2287
25/05/2019 14:12:29.720,2295
25/05/2019 14:12:29.724,2279
25/05/2019 14:12:29.728,2279
25/05/2019 14:12:29.732,2267
25/05/2019 14:12:29.736,2263
25/05/2019 14:12:29.740,2259
25/05/2019 14:12:29.744,2263
25/05/2019 14:12:29.748,2267
25/05/2019 14:12:29.752,2263
25/05/2019 14:12:29.756,2259
25/05/2019 14:12:29.760,2267
25/05/2019 14:12:29.764,2279
25/05/2019 14:12:29.768,2275
25/05/2019 14:12:29.772,2271
25/05/2019 14:12:29.776,2267
25/05/2019 14:12:29.780,2267
25/05/2019 14:12:29.784,2271
25/05/2019 14:12:29.788,2275
25/05/2019 14:12:29.792,2275
25/05/2019 14:12:29.796,2283
25/05/2019 14:12:29.800,2279
25/05/2019 14:12:29.804,2271
25/05/2019 14:12:29.808,2275
25/05/2019 14:12:29.812,2275
25/05/2019 14:12:29.816,2279
25/05/2019 14:12:29.820,2271
25/05/2019 14:12:29.824,2267
25/05/2019 14:12:29.828,2267
25/05/2019 14:12:29.832,2271
25/05/2019 14:12:29.836,2271
25/05/2019 14:12:29.840,2267
25/05/2019 14:12:29.844,2271
25/05/2019 14:12:29.848,2275
25/05/2019 14:12:29.852,2283
25/05/2019 14:12:29.856,2267
25/05/2019 14:12:29.860,2267
25/05/2019 14:12:29.864,2275
25/05/2019 14:12:29.868,2271
25/05/2019 14:12:29.872,2271
25/05/2019 14:12:29.876,2267
25/05/2019 14:12:29.880,2271
25/05/2019 14:12:29.884,2275
25/05/2019 14:12:29.888,2267
25/05/2019 14:12:29.892,2263
25/05/2019 14:12:29.896,2255
25/05/2019 14:12:29.900,2255
25/05/2019 14:12:29.904,2263
25/05/2019 14:12:29.908,2267
25/05/2019 14:12:29.912,2279
25/05/2019 14:12:29.916,2271
25/05/2019 14:12:29.920,2263
25/05/2019 14:12:29.924,2267
25/05/2019 14:12:29.928,2275
25/05/2019 14:12:29.932,2279
25/05/2019 14:12:29.936,2275
25/05/2019 14:12:29.940,2275
25/05/2019 14:12:29.944,2279
25/05/2019 14:12:29.948,2271
25/05/2019 14:12:29.952,2267
25/05/2019 14:12:29.956,2267
25/05/2019 14:12:29.960,2263
25/05/2019 14:12:29.964,2263
25/05/2019 14:12:29.968,2259
25/05/2019 14:12:29.972,2263
25/05/2019 14:12:29.976,2259
25/05/2019 14:12:29.980,2259
25/05/2019 14:12:29.984,2263
25/05/2019 14:12:29.988,2267
25/05/2019 14:12:29.992,2271
25/05/2019 14:12:29.996,2263
25/05/2019 14:12:30.000,2255
25/05/2019 14:12:30.004,2255
25/05/2019 14:12:30.008,2243
25/05/2019 14:12:30.012,2211
25/05/2019 14:12:30.016,2163
25/05/2019 14:12:30.020,2127
25/05/2019 14:12:30.024,2087
25/05/2019 14:12:30.028,2075
25/05/2019 14:12:30.032,2131
25/05/2019 14:12:30.036,2295
25/05/2019 14:12:30.040,2519
25/05/2019 14:12:30.044,2691
25/05/2019 14:12:30.048,2631
25/05/2019 14:12:30.052,2479
25/05/2019 14:12:30.056,2343
25/05/2019 14:12:30.060,2227
25/05/2019 14:12:30.064,2171
25/05/2019 14:12:30.068,2163
25/05/2019 14:12:30.072,2171
25/05/2019 14:12:30.076,2191
25/05/2019 14:12:30.080,2207
25/05/2019 14:12:30.084,2211
25/05/2019 14:12:30.088,2215
25/05/2019 14:12:30.092,2223
25/05/2019 14:12:30.096,2227
25/05/2019 14:12:30.100,2239
25/05/2019 14:12:30.104,2243
25/05/2019 14:12:30.108,2235
25/05/2019 14:12:30.112,2235
25/05/2019 14:12:30.116,2235
25/05/2019 14:12:30.120,2247
25/05/2019 14:12:30.124,2255
25/05/2019 14:12:30.128,2263
25/05/2019 14:12:30.132,2263
25/05/2019 14:12:30.136,2267
25/05/2019 14:12:30.140,2267
25/05/2019 14:12:30.144,2267
25/05/2019 14:12:30.148,2263
25/05/2019 14:12:30.152,2271
25/05/2019 14:12:30.156,2275
25/05/2019 14:12:30.160,2275
25/05/2019 14:12:30.164,2267
25/05/2019 14:12:30.168,2255
25/05/2019 14:12:30.172,2255
25/05/2019 14:12:30.176,2267
25/05/2019 14:12:30.180,2267
25/05/2019 14:12:30.184,2263
25/05/2019 14:12:30.188,2259
25/05/2019 14:12:30.192,2255
25/05/2019 14:12:30.196,2267
25/05/2019 14:12:30.200,2263
25/05/2019 14:12:30.204,2247
25/05/2019 14:12:30.208,2247
25/05/2019 14:12:30.212,2251
25/05/2019 14:12:30.216,2251
25/05/2019 14:12:30.220,2251
25/05/2019 14:12:30.224,2247
25/05/2019 14:12:30.228,2243
25/05/2019 14:12:30.232,2247
25/05/2019 14:12:30.236,2255
25/05/2019 14:12:30.240,2247
25/05/2019 14:12:30.244,2243
25/05/2019 14:12:30.248,2251
25/05/2019 14:12:30.252,2255
25/05/2019 14:12:30.256,2247
25/05/2019 14:12:30.260,2259
25/05/2019 14:12:30.264,2255
25/05/2019 14:12:30.268,2255
25/05/2019 14:12:30.272,2263
25/05/2019 14:12:30.276,2255
25/05/2019 14:12:30.280,2255
25/05/2019 14:12:30.284,2263
25/05/2019 14:12:30.288,2255
25/05/2019 14:12:30.292,2259
25/05/2019 14:12:30.296,2263
25/05/2019 14:12:30.300,2271
25/05/2019 14:12:30.304,2275
25/05/2019 14:12:30.308,2283
25/05/2019 14:12:30.312,2283
25/05/2019 14:12:30.316,2283
25/05/2019 14:12:30.320,2299
25/05/2019 14:12:30.324,2295
25/05/2019 14:12:30.328,2279
25/05/2019 14:12:30.332,2267
25/05/2019 14:12:30.336,2263
25/05/2019 14:12:30.340,2259
25/05/2019 14:12:30.344,2259
25/05/2019 14:12:30.348,2263
25/05/2019 14:12:30.352,2259
25/05/2019 14:12:30.356,2255
25/05/2019 14:12:30.360,2243
25/05/2019 14:12:30.364,2239
25/05/2019 14:12:30.368,2231
25/05/2019 14:12:30.372,2235
25/05/2019 14:12:30.376,2231
25/05/2019 14:12:30.380,2227
25/05/2019 14:12:30.384,2219
25/05/2019 14:12:30.388,2215
25/05/2019 14:12:30.392,2219
25/05/2019 14:12:30.396,2227
25/05/2019 14:12:30.400,2231
25/05/2019 14:12:30.404,2235
25/05/2019 14:12:30.408,2235
25/05/2019 14:12:30.412,2239
25/05/2019 14:12:30.416,2231
25/05/2019 14:12:30.420,2231
25/05/2019 14:12:30.424,2235
25/05/2019 14:12:30.428,2239
25/05/2019 14:12:30.432,2239
25/05/2019 14:12:30.436,2239
25/05/2019 14:12:30.440,2243
25/05/2019 14:12:30.444,2243
25/05/2019 14:12:30.448,2243
25/05/2019 14:12:30.452,2239
25/05/2019 14:12:30.456,2247
25/05/2019 14:12:30.460,2243
25/05/2019 14:12:30.464,2247
25/05/2019 14:12:30.468,2247
25/05/2019 14:12:30.472,2243
25/05/2019 14:12:30.476,2231
25/05/2019 14:12:30.480,2247
25/05/2019 14:12:30.484,2251
25/05/2019 14:12:30.488,2251
25/05/2019 14:12:30.492,2247
25/05/2019 14:12:30.496,2235
25/05/2019 14:12:30.500,2235
25/05/2019 14:12:30.504,2239
25/05/2019 14:12:30.508,2247
25/05/2019 14:12:30.512,2251
25/05/2019 14:12:30.516,2251
25/05/2019 14:12:30.520,2247
25/05/2019 14:12:30.524,2239
25/05/2019 14:12:30.528,2243
25/05/2019 14:12:30.532,2247
25/05/2019 14:12:30.536,2255
25/05/2019 14:12:30.540,2251
25/05/2019 14:12:30.544,2247
25/05/2019 14:12:30.548,2247
25/05/2019 14:12:30.552,2247
25/05/2019 14:12:30.556,2247
25/05/2019 14:12:30.560,2251
25/05/2019 14:12:30.564,2251
25/05/2019 14:12:30.568,2251
25/05/2019 14:12:30.572,2247
25/05/2019 14:12:30.576,2247
25/05/2019 14:12:30.580,2247
25/05/2019 14:12:30.584,2247
25/05/2019 14:12:30.588,2251
25/05/2019 14:12:30.592,2251
25/05/2019 14:12:30.596,2259
25/05/2019 14:12:30.600,2259
25/05/2019 14:12:30.604,2255
25/05/2019 14:12:30.608,2251
25/05/2019 14:12:30.612,2255
25/05/2019 14:12:30.616,2259
25/05/2019 14:12:30.620,2271
25/05/2019 14:12:30.624,2259
25/05/2019 14:12:30.628,2247
25/05/2019 14:12:30.632,2251
25/05/2019 14:12:30.636,2255
25/05/2019 14:12:30.640,2259
25/05/2019 14:12:30.644,2259
25/05/2019 14:12:30.648,2251
25/05/2019 14:12:30.652,2251
25/05/2019 14:12:30.656,2247
25/05/2019 14:12:30.660,2251
25/05/2019 14:12:30.664,2251
25/05/2019 14:12:30.668,2247
25/05/2019 14:12:30.672,2247
25/05/2019 14:12:30.676,2255
25/05/2019 14:12:30.680,2259
25/05/2019 14:12:30.684,2259
25/05/2019 14:12:30.688,2255
25/05/2019 14:12:30.692,2247
25/05/2019 14:12:30.696,2243
25/05/2019 14:12:30.700,2247
25/05/2019 14:12:30.704,2239
25/05/2019 14:12:30.708,2235
25/05/2019 14:12:30.712,2235
25/05/2019 14:12:30.716,2239
25/05/2019 14:12:30.720,2239
25/05/2019 14:12:30.724,2243
25/05/2019 14:12:30.728,2235
25/05/2019 14:12:30.732,2231
25/05/2019 14:12:30.736,2223
25/05/2019 14:12:30.740,2235
25/05/2019 14:12:30.744,2227
25/05/2019 14:12:30.748,2223
25/05/2019 14:12:30.752,2215
25/05/2019 14:12:30.756,2215
25/05/2019 14:12:30.760,2219
25/05/2019 14:12:30.764,2219
25/05/2019 14:12:30.768,2219
25/05/2019 14:12:30.772,2203
25/05/2019 14:12:30.776,2183
25/05/2019 14:12:30.780,2139
25/05/2019 14:12:30.784,2079
25/05/2019 14:12:30.788,2043
25/05/2019 14:12:30.792,2035
25/05/2019 14:12:30.796,2071
25/05/2019 14:12:30.800,2219
25/05/2019 14:12:30.804,2451
25/05/2019 14:12:30.808,2675
25/05/2019 14:12:30.812,2651
25/05/2019 14:12:30.816,2511
25/05/2019 14:12:30.820,2359
25/05/2019 14:12:30.824,2235
25/05/2019 14:12:30.828,2167
25/05/2019 14:12:30.832,2147
25/05/2019 14:12:30.836,2155
25/05/2019 14:12:30.840,2183
25/05/2019 14:12:30.844,2207
25/05/2019 14:12:30.848,2211
25/05/2019 14:12:30.852,2219
25/05/2019 14:12:30.856,2223
25/05/2019 14:12:30.860,2231
25/05/2019 14:12:30.864,2243
25/05/2019 14:12:30.868,2231
25/05/2019 14:12:30.872,2211
25/05/2019 14:12:30.876,2207
25/05/2019 14:12:30.880,2203
25/05/2019 14:12:30.884,2195
25/05/2019 14:12:30.888,2211
25/05/2019 14:12:30.892,2227
25/05/2019 14:12:30.896,2227
25/05/2019 14:12:30.900,2223
25/05/2019 14:12:30.904,2219
25/05/2019 14:12:30.908,2219
25/05/2019 14:12:30.912,2219
25/05/2019 14:12:30.916,2223
25/05/2019 14:12:30.920,2215
25/05/2019 14:12:30.924,2215
25/05/2019 14:12:30.928,2219
25/05/2019 14:12:30.932,2219
25/05/2019 14:12:30.936,2223
25/05/2019 14:12:30.940,2215
25/05/2019 14:12:30.944,2219
25/05/2019 14:12:30.948,2223
25/05/2019 14:12:30.952,2227
25/05/2019 14:12:30.956,2231
25/05/2019 14:12:30.960,2235
25/05/2019 14:12:30.964,2231
25/05/2019 14:12:30.968,2227
25/05/2019 14:12:30.972,2211
25/05/2019 14:12:30.976,2203
25/05/2019 14:12:30.980,2191
25/05/2019 14:12:30.984,2195
25/05/2019 14:12:30.988,2195
25/05/2019 14:12:30.992,2195
25/05/2019 14:12:30.996,2195
25/05/2019 14:12:31.000,2175
25/05/2019 14:12:31.004,2175
25/05/2019 14:12:31.008,2187
25/05/2019 14:12:31.012,2183
25/05/2019 14:12:31.016,2187
25/05/2019 14:12:31.020,2199
25/05/2019 14:12:31.024,2215
25/05/2019 14:12:31.028,2219
25/05/2019 14:12:31.032,2211
25/05/2019 14:12:31.036,2211
25/05/2019 14:12:31.040,2211
25/05/2019 14:12:31.044,2215
25/05/2019 14:12:31.048,2219
25/05/2019 14:12:31.052,2223
25/05/2019 14:12:31.056,2227
25/05/2019 14:12:31.060,2223
25/05/2019 14:12:31.064,2223
25/05/2019 14:12:31.068,2239
25/05/2019 14:12:31.072,2255
25/05/2019 14:12:31.076,2267
25/05/2019 14:12:31.080,2271
25/05/2019 14:12:31.084,2279
25/05/2019 14:12:31.088,2279
25/05/2019 14:12:31.092,2275
25/05/2019 14:12:31.096,2279
25/05/2019 14:12:31.100,2271
25/05/2019 14:12:31.104,2263
25/05/2019 14:12:31.108,2259
25/05/2019 14:12:31.112,2255
25/05/2019 14:12:31.116,2251
25/05/2019 14:12:31.120,2251
25/05/2019 14:12:31.124,2235
25/05/2019 14:12:31.128,2223
25/05/2019 14:12:31.132,2211
25/05/2019 14:12:31.136,2203
25/05/2019 14:12:31.140,2195
25/05/2019 14:12:31.144,2179
25/05/2019 14:12:31.148,2171
25/05/2019 14:12:31.152,2163
25/05/2019 14:12:31.156,2171
25/05/2019 14:12:31.160,2175
25/05/2019 14:12:31.164,2171
25/05/2019 14:12:31.168,2167
25/05/2019 14:12:31.172,2159
25/05/2019 14:12:31.176,2143
25/05/2019 14:12:31.180,2147
25/05/2019 14:12:31.184,2151
25/05/2019 14:12:31.188,2155
25/05/2019 14:12:31.192,2159
25/05/2019 14:12:31.196,2163
25/05/2019 14:12:31.200,2167
25/05/2019 14:12:31.204,2179
25/05/2019 14:12:31.208,2191
25/05/2019 14:12:31.212,2187
25/05/2019 14:12:31.216,2191
25/05/2019 14:12:31.220,2199
25/05/2019 14:12:31.224,2203
25/05/2019 14:12:31.228,2203
25/05/2019 14:12:31.232,2211
25/05/2019 14:12:31.236,2211
25/05/2019 14:12:31.240,2211
25/05/2019 14:12:31.244,2215
25/05/2019 14:12:31.248,2207
25/05/2019 14:12:31.252,2211
25/05/2019 14:12:31.256,2211
25/05/2019 14:12:31.260,2211
25/05/2019 14:12:31.264,2215
25/05/2019 14:12:31.268,2215
25/05/2019 14:12:31.272,2219
25/05/2019 14:12:31.276,2215
25/05/2019 14:12:31.280,2215
25/05/2019 14:12:31.284,2215
25/05/2019 14:12:31.288,2223
25/05/2019 14:12:31.292,2223
25/05/2019 14:12:31.296,2219
25/05/2019 14:12:31.300,2215
25/05/2019 14:12:31.304,2215
25/05/2019 14:12:31.308,2219
25/05/2019 14:12:31.312,2219
25/05/2019 14:12:31.316,2219
25/05/2019 14:12:31.320,2219
25/05/2019 14:12:31.324,2219
25/05/2019 14:12:31.328,2215
25/05/2019 14:12:31.332,2223
25/05/2019 14:12:31.336,2231
25/05/2019 14:12:31.340,2231
25/05/2019 14:12:31.344,2231
25/05/2019 14:12:31.348,2231
25/05/2019 14:12:31.352,2227
25/05/2019 14:12:31.356,2219
25/05/2019 14:12:31.360,2223
25/05/2019 14:12:31.364,2219
25/05/2019 14:12:31.368,2227
25/05/2019 14:12:31.372,2235
25/05/2019 14:12:31.376,2243
25/05/2019 14:12:31.380,2255
25/05/2019 14:12:31.384,2251
25/05/2019 14:12:31.388,2251
25/05/2019 14:12:31.392,2255
25/05/2019 14:12:31.396,2259
25/05/2019 14:12:31.400,2263
25/05/2019 14:12:31.404,2251
25/05/2019 14:12:31.408,2215
25/05/2019 14:12:31.412,2211
25/05/2019 14:12:31.416,2219
25/05/2019 14:12:31.420,2235
25/05/2019 14:12:31.424,2247
25/05/2019 14:12:31.428,2239
25/05/2019 14:12:31.432,2239
25/05/2019 14:12:31.436,2243
25/05/2019 14:12:31.440,2255
25/05/2019 14:12:31.444,2263
25/05/2019 14:12:31.448,2259
25/05/2019 14:12:31.452,2251
25/05/2019 14:12:31.456,2243
25/05/2019 14:12:31.460,2239
25/05/2019 14:12:31.464,2235
25/05/2019 14:12:31.468,2231
25/05/2019 14:12:31.472,2223
25/05/2019 14:12:31.476,2227
25/05/2019 14:12:31.480,2211
25/05/2019 14:12:31.484,2203
25/05/2019 14:12:31.488,2207
25/05/2019 14:12:31.492,2203
25/05/2019 14:12:31.496,2195
25/05/2019 14:12:31.500,2187
25/05/2019 14:12:31.504,2191
25/05/2019 14:12:31.508,2187
25/05/2019 14:12:31.512,2191
25/05/2019 14:12:31.516,2195
25/05/2019 14:12:31.520,2191
25/05/2019 14:12:31.524,2191
25/05/2019 14:12:31.528,2183
25/05/2019 14:12:31.532,2171
25/05/2019 14:12:31.536,2163
25/05/2019 14:12:31.540,2163
25/05/2019 14:12:31.544,2155
25/05/2019 14:12:31.548,2135
25/05/2019 14:12:31.552,2091
25/05/2019 14:12:31.556,2027
25/05/2019 14:12:31.560,1991
25/05/2019 14:12:31.564,1983
25/05/2019 14:12:31.568,2023
25/05/2019 14:12:31.572,2175
25/05/2019 14:12:31.576,2403
25/05/2019 14:12:31.580,2627
25/05/2019 14:12:31.584,2591
25/05/2019 14:12:31.588,2439
25/05/2019 14:12:31.592,2275
25/05/2019 14:12:31.596,2143
25/05/2019 14:12:31.600,2087
25/05/2019 14:12:31.604,2067
25/05/2019 14:12:31.608,2079
25/05/2019 14:12:31.612,2103
25/05/2019 14:12:31.616,2131
25/05/2019 14:12:31.620,2139
25/05/2019 14:12:31.624,2135
25/05/2019 14:12:31.628,2139
25/05/2019 14:12:31.632,2147
25/05/2019 14:12:31.636,2159
25/05/2019 14:12:31.640,2167
25/05/2019 14:12:31.644,2163
25/05/2019 14:12:31.648,2163
25/05/2019 14:12:31.652,2171
25/05/2019 14:12:31.656,2171
25/05/2019 14:12:31.660,2179
25/05/2019 14:12:31.664,2195
25/05/2019 14:12:31.668,2207
25/05/2019 14:12:31.672,2207
25/05/2019 14:12:31.676,2215
25/05/2019 14:12:31.680,2211
25/05/2019 14:12:31.684,2215
25/05/2019 14:12:31.688,2211
25/05/2019 14:12:31.692,2219
25/05/2019 14:12:31.696,2219
25/05/2019 14:12:31.700,2219
25/05/2019 14:12:31.704,2223
25/05/2019 14:12:31.708,2215
25/05/2019 14:12:31.712,2215
25/05/2019 14:12:31.716,2223
25/05/2019 14:12:31.720,2227
25/05/2019 14:12:31.724,2223
25/05/2019 14:12:31.728,2223
25/05/2019 14:12:31.732,2227
25/05/2019 14:12:31.736,2219
25/05/2019 14:12:31.740,2219
25/05/2019 14:12:31.744,2219
25/05/2019 14:12:31.748,2215
25/05/2019 14:12:31.752,2187
25/05/2019 14:12:31.756,2151
25/05/2019 14:12:31.760,2147
25/05/2019 14:12:31.764,2151
25/05/2019 14:12:31.768,2167
25/05/2019 14:12:31.772,2171
25/05/2019 14:12:31.776,2183
25/05/2019 14:12:31.780,2195
25/05/2019 14:12:31.784,2207
25/05/2019 14:12:31.788,2215
25/05/2019 14:12:31.792,2219
25/05/2019 14:12:31.796,2227
25/05/2019 14:12:31.800,2235
25/05/2019 14:12:31.804,2239
25/05/2019 14:12:31.808,2231
25/05/2019 14:12:31.812,2231
25/05/2019 14:12:31.816,2227
25/05/2019 14:12:31.820,2223
25/05/2019 14:12:31.824,2219
25/05/2019 14:12:31.828,2219
25/05/2019 14:12:31.832,2223
25/05/2019 14:12:31.836,2239
25/05/2019 14:12:31.840,2247
25/05/2019 14:12:31.844,2243
25/05/2019 14:12:31.848,2235
25/05/2019 14:12:31.852,2227
25/05/2019 14:12:31.856,2231
25/05/2019 14:12:31.860,2231
25/05/2019 14:12:31.864,2227
25/05/2019 14:12:31.868,2227
25/05/2019 14:12:31.872,2223
25/05/2019 14:12:31.876,2227
25/05/2019 14:12:31.880,2227
25/05/2019 14:12:31.884,2215
25/05/2019 14:12:31.888,2203
25/05/2019 14:12:31.892,2207
25/05/2019 14:12:31.896,2203
25/05/2019 14:12:31.900,2195
25/05/2019 14:12:31.904,2195
25/05/2019 14:12:31.908,2195
25/05/2019 14:12:31.912,2191
25/05/2019 14:12:31.916,2183
25/05/2019 14:12:31.920,2171
25/05/2019 14:12:31.924,2163
25/05/2019 14:12:31.928,2163
25/05/2019 14:12:31.932,2175
25/05/2019 14:12:31.936,2171
25/05/2019 14:12:31.940,2167
25/05/2019 14:12:31.944,2175
25/05/2019 14:12:31.948,2183
25/05/2019 14:12:31.952,2171
25/05/2019 14:12:31.956,2171
25/05/2019 14:12:31.960,2175
25/05/2019 14:12:31.964,2179
25/05/2019 14:12:31.968,2179
25/05/2019 14:12:31.972,2187
25/05/2019 14:12:31.976,2195
25/05/2019 14:12:31.980,2191
25/05/2019 14:12:31.984,2191
25/05/2019 14:12:31.988,2199
25/05/2019 14:12:31.992,2203
25/05/2019 14:12:31.996,2203
25/05/2019 14:12:32.000,2203
25/05/2019 14:12:32.004,2207
25/05/2019 14:12:32.008,2199
25/05/2019 14:12:32.012,2191
25/05/2019 14:12:32.016,2195
25/05/2019 14:12:32.020,2191
25/05/2019 14:12:32.024,2195
25/05/2019 14:12:32.028,2195
25/05/2019 14:12:32.032,2191
25/05/2019 14:12:32.036,2187
25/05/2019 14:12:32.040,2183
25/05/2019 14:12:32.044,2183
25/05/2019 14:12:32.048,2179
25/05/2019 14:12:32.052,2183
25/05/2019 14:12:32.056,2183
25/05/2019 14:12:32.060,2183
25/05/2019 14:12:32.064,2195
25/05/2019 14:12:32.068,2191
25/05/2019 14:12:32.072,2195
25/05/2019 14:12:32.076,2187
25/05/2019 14:12:32.080,2191
25/05/2019 14:12:32.084,2195
25/05/2019 14:12:32.088,2199
25/05/2019 14:12:32.092,2195
25/05/2019 14:12:32.096,2191
25/05/2019 14:12:32.100,2191
25/05/2019 14:12:32.104,2199
25/05/2019 14:12:32.108,2203
25/05/2019 14:12:32.112,2199
25/05/2019 14:12:32.116,2199
25/05/2019 14:12:32.120,2199
25/05/2019 14:12:32.124,2199
25/05/2019 14:12:32.128,2199
25/05/2019 14:12:32.132,2199
25/05/2019 14:12:32.136,2195
25/05/2019 14:12:32.140,2195
25/05/2019 14:12:32.144,2199
25/05/2019 14:12:32.148,2199
25/05/2019 14:12:32.152,2199
25/05/2019 14:12:32.156,2207
25/05/2019 14:12:32.160,2211
25/05/2019 14:12:32.164,2211
25/05/2019 14:12:32.168,2207
25/05/2019 14:12:32.172,2203
25/05/2019 14:12:32.176,2203
25/05/2019 14:12:32.180,2207
25/05/2019 14:12:32.184,2211
25/05/2019 14:12:32.188,2211
25/05/2019 14:12:32.192,2203
25/05/2019 14:12:32.196,2207
25/05/2019 14:12:32.200,2215
25/05/2019 14:12:32.204,2211
25/05/2019 14:12:32.208,2211
25/05/2019 14:12:32.212,2219
25/05/2019 14:12:32.216,2219
25/05/2019 14:12:32.220,2211
25/05/2019 14:12:32.224,2211
25/05/2019 14:12:32.228,2219
25/05/2019 14:12:32.232,2223
25/05/2019 14:12:32.236,2207
25/05/2019 14:12:32.240,2207
25/05/2019 14:12:32.244,2207
25/05/2019 14:12:32.248,2199
25/05/2019 14:12:32.252,2195
25/05/2019 14:12:32.256,2195
25/05/2019 14:12:32.260,2199
25/05/2019 14:12:32.264,2203
25/05/2019 14:12:32.268,2203
25/05/2019 14:12:32.272,2199
25/05/2019 14:12:32.276,2195
25/05/2019 14:12:32.280,2195
25/05/2019 14:12:32.284,2191
25/05/2019 14:12:32.288,2175
25/05/2019 14:12:32.292,2147
25/05/2019 14:12:32.296,2103
25/05/2019 14:12:32.300,2063
25/05/2019 14:12:32.304,2035
25/05/2019 14:12:32.308,2039
25/05/2019 14:12:32.312,2071
25/05/2019 14:12:32.316,2187
25/05/2019 14:12:32.320,2375
25/05/2019 14:12:32.324,2587
25/05/2019 14:12:32.328,2595
25/05/2019 14:12:32.332,2475
25/05/2019 14:12:32.336,2339
25/05/2019 14:12:32.340,2211
25/05/2019 14:12:32.344,2127
25/05/2019 14:12:32.348,2099
25/05/2019 14:12:32.352,2099
25/05/2019 14:12:32.356,2127
25/05/2019 14:12:32.360,2155
25/05/2019 14:12:32.364,2159
25/05/2019 14:12:32.368,2163
25/05/2019 14:12:32.372,2171
25/05/2019 14:12:32.376,2171
25/05/2019 14:12:32.380,2167
25/05/2019 14:12:32.384,2163
25/05/2019 14:12:32.388,2167
25/05/2019 14:12:32.392,2151
25/05/2019 14:12:32.396,2139
25/05/2019 14:12:32.400,2135
25/05/2019 14:12:32.404,2143
25/05/2019 14:12:32.408,2147
25/05/2019 14:12:32.412,2155
25/05/2019 14:12:32.416,2171
25/05/2019 14:12:32.420,2175
25/05/2019 14:12:32.424,2175
25/05/2019 14:12:32.428,2175
25/05/2019 14:12:32.432,2183
25/05/2019 14:12:32.436,2195
25/05/2019 14:12:32.440,2191
25/05/2019 14:12:32.444,2191
25/05/2019 14:12:32.448,2191
25/05/2019 14:12:32.452,2203
25/05/2019 14:12:32.456,2215
25/05/2019 14:12:32.460,2219
25/05/2019 14:12:32.464,2227
25/05/2019 14:12:32.468,2215
25/05/2019 14:12:32.472,2187
25/05/2019 14:12:32.476,2175
25/05/2019 14:12:32.480,2179
25/05/2019 14:12:32.484,2195
25/05/2019 14:12:32.488,2207
25/05/2019 14:12:32.492,2211
25/05/2019 14:12:32.496,2219
25/05/2019 14:12:32.500,2219
25/05/2019 14:12:32.504,2223
25/05/2019 14:12:32.508,2227
25/05/2019 14:12:32.512,2231
25/05/2019 14:12:32.516,2223
25/05/2019 14:12:32.520,2219
25/05/2019 14:12:32.524,2207
25/05/2019 14:12:32.528,2195
25/05/2019 14:12:32.532,2191
25/05/2019 14:12:32.536,2227
25/05/2019 14:12:32.540,2255
25/05/2019 14:12:32.544,2279
25/05/2019 14:12:32.548,2287
25/05/2019 14:12:32.552,2283
25/05/2019 14:12:32.556,2279
25/05/2019 14:12:32.560,2271
25/05/2019 14:12:32.564,2255
25/05/2019 14:12:32.568,2239
25/05/2019 14:12:32.572,2227
25/05/2019 14:12:32.576,2215
25/05/2019 14:12:32.580,2203
25/05/2019 14:12:32.584,2199
25/05/2019 14:12:32.588,2211
25/05/2019 14:12:32.592,2215
25/05/2019 14:12:32.596,2211
25/05/2019 14:12:32.600,2211
25/05/2019 14:12:32.604,2207
25/05/2019 14:12:32.608,2203
25/05/2019 14:12:32.612,2203
25/05/2019 14:12:32.616,2187
25/05/2019 14:12:32.620,2175
25/05/2019 14:12:32.624,2159
25/05/2019 14:12:32.628,2151
25/05/2019 14:12:32.632,2135
25/05/2019 14:12:32.636,2135
25/05/2019 14:12:32.640,2135
25/05/2019 14:12:32.644,2139
25/05/2019 14:12:32.648,2135
25/05/2019 14:12:32.652,2135
25/05/2019 14:12:32.656,2139
25/05/2019 14:12:32.660,2131
25/05/2019 14:12:32.664,2119
25/05/2019 14:12:32.668,2115
25/05/2019 14:12:32.672,2115
25/05/2019 14:12:32.676,2107
25/05/2019 14:12:32.680,2115
25/05/2019 14:12:32.684,2119
25/05/2019 14:12:32.688,2123
25/05/2019 14:12:32.692,2119
25/05/2019 14:12:32.696,2127
25/05/2019 14:12:32.700,2131
25/05/2019 14:12:32.704,2135
25/05/2019 14:12:32.708,2131
25/05/2019 14:12:32.712,2127
25/05/2019 14:12:32.716,2131
25/05/2019 14:12:32.720,2147
25/05/2019 14:12:32.724,2155
25/05/2019 14:12:32.728,2167
25/05/2019 14:12:32.732,2171
25/05/2019 14:12:32.736,2167
25/05/2019 14:12:32.740,2159
25/05/2019 14:12:32.744,2151
25/05/2019 14:12:32.748,2151
25/05/2019 14:12:32.752,2163
25/05/2019 14:12:32.756,2171
25/05/2019 14:12:32.760,2175
25/05/2019 14:12:32.764,2167
25/05/2019 14:12:32.768,2167
25/05/2019 14:12:32.772,2183
25/05/2019 14:12:32.776,2191
25/05/2019 14:12:32.780,2199
25/05/2019 14:12:32.784,2199
25/05/2019 14:12:32.788,2191
25/05/2019 14:12:32.792,2187
25/05/2019 14:12:32.796,2187
25/05/2019 14:12:32.800,2199
25/05/2019 14:12:32.804,2207
25/05/2019 14:12:32.808,2211
25/05/2019 14:12:32.812,2219
25/05/2019 14:12:32.816,2227
25/05/2019 14:12:32.820,2239
25/05/2019 14:12:32.824,2243
25/05/2019 14:12:32.828,2239
25/05/2019 14:12:32.832,2235
25/05/2019 14:12:32.836,2219
25/05/2019 14:12:32.840,2207
25/05/2019 14:12:32.844,2195
25/05/2019 14:12:32.848,2179
25/05/2019 14:12:32.852,2167
25/05/2019 14:12:32.856,2171
25/05/2019 14:12:32.860,2175
25/05/2019 14:12:32.864,2175
25/05/2019 14:12:32.868,2171
25/05/2019 14:12:32.872,2163
25/05/2019 14:12:32.876,2151
25/05/2019 14:12:32.880,2143
25/05/2019 14:12:32.884,2135
25/05/2019 14:12:32.888,2135
25/05/2019 14:12:32.892,2131
25/05/2019 14:12:32.896,2119
25/05/2019 14:12:32.900,2119
25/05/2019 14:12:32.904,2131
25/05/2019 14:12:32.908,2139
25/05/2019 14:12:32.912,2155
25/05/2019 14:12:32.916,2171
25/05/2019 14:12:32.920,2175
25/05/2019 14:12:32.924,2179
25/05/2019 14:12:32.928,2187
25/05/2019 14:12:32.932,2187
25/05/2019 14:12:32.936,2183
25/05/2019 14:12:32.940,2163
25/05/2019 14:12:32.944,2155
25/05/2019 14:12:32.948,2155
25/05/2019 14:12:32.952,2155
25/05/2019 14:12:32.956,2159
25/05/2019 14:12:32.960,2163
25/05/2019 14:12:32.964,2155
25/05/2019 14:12:32.968,2147
25/05/2019 14:12:32.972,2155
25/05/2019 14:12:32.976,2159
25/05/2019 14:12:32.980,2159
25/05/2019 14:12:32.984,2159
25/05/2019 14:12:32.988,2159
25/05/2019 14:12:32.992,2147
25/05/2019 14:12:32.996,2143
25/05/2019 14:12:33.000,2151
25/05/2019 14:12:33.004,2155
25/05/2019 14:12:33.008,2139
25/05/2019 14:12:33.012,2131
25/05/2019 14:12:33.016,2131
25/05/2019 14:12:33.020,2127
25/05/2019 14:12:33.024,2123
25/05/2019 14:12:33.028,2119
25/05/2019 14:12:33.032,2127
25/05/2019 14:12:33.036,2115
25/05/2019 14:12:33.040,2115
25/05/2019 14:12:33.044,2115
25/05/2019 14:12:33.048,2115
25/05/2019 14:12:33.052,2115
25/05/2019 14:12:33.056,2103
25/05/2019 14:12:33.060,2083
25/05/2019 14:12:33.064,2043
25/05/2019 14:12:33.068,1987
25/05/2019 14:12:33.072,1955
25/05/2019 14:12:33.076,1951
25/05/2019 14:12:33.080,1971
25/05/2019 14:12:33.084,2091
25/05/2019 14:12:33.088,2287
25/05/2019 14:12:33.092,2547
25/05/2019 14:12:33.096,2591
25/05/2019 14:12:33.100,2467
25/05/2019 14:12:33.104,2311
25/05/2019 14:12:33.108,2171
25/05/2019 14:12:33.112,2087
25/05/2019 14:12:33.116,2059
25/05/2019 14:12:33.120,2067
25/05/2019 14:12:33.124,2095
25/05/2019 14:12:33.128,2119
25/05/2019 14:12:33.132,2119
25/05/2019 14:12:33.136,2123
25/05/2019 14:12:33.140,2135
25/05/2019 14:12:33.144,2143
25/05/2019 14:12:33.148,2143
25/05/2019 14:12:33.152,2147
25/05/2019 14:12:33.156,2147
25/05/2019 14:12:33.160,2139
25/05/2019 14:12:33.164,2131
25/05/2019 14:12:33.168,2123
25/05/2019 14:12:33.172,2119
25/05/2019 14:12:33.176,2123
25/05/2019 14:12:33.180,2135
25/05/2019 14:12:33.184,2147
25/05/2019 14:12:33.188,2155
25/05/2019 14:12:33.192,2167
25/05/2019 14:12:33.196,2167
25/05/2019 14:12:33.200,2171
25/05/2019 14:12:33.204,2179
25/05/2019 14:12:33.208,2195
25/05/2019 14:12:33.212,2199
25/05/2019 14:12:33.216,2191
25/05/2019 14:12:33.220,2195
25/05/2019 14:12:33.224,2195
25/05/2019 14:12:33.228,2195
25/05/2019 14:12:33.232,2191
25/05/2019 14:12:33.236,2191
25/05/2019 14:12:33.240,2191
25/05/2019 14:12:33.244,2187
25/05/2019 14:12:33.248,2175
25/05/2019 14:12:33.252,2159
25/05/2019 14:12:33.256,2147
25/05/2019 14:12:33.260,2139
25/05/2019 14:12:33.264,2139
25/05/2019 14:12:33.268,2139
25/05/2019 14:12:33.272,2139
25/05/2019 14:12:33.276,2151
25/05/2019 14:12:33.280,2163
25/05/2019 14:12:33.284,2175
25/05/2019 14:12:33.288,2187
25/05/2019 14:12:33.292,2187
25/05/2019 14:12:33.296,2187
25/05/2019 14:12:33.300,2187
25/05/2019 14:12:33.304,2187
25/05/2019 14:12:33.308,2187
25/05/2019 14:12:33.312,2199
25/05/2019 14:12:33.316,2199
25/05/2019 14:12:33.320,2203
25/05/2019 14:12:33.324,2203
25/05/2019 14:12:33.328,2191
25/05/2019 14:12:33.332,2183
25/05/2019 14:12:33.336,2191
25/05/2019 14:12:33.340,2195
25/05/2019 14:12:33.344,2191
25/05/2019 14:12:33.348,2179
25/05/2019 14:12:33.352,2183
25/05/2019 14:12:33.356,2199
25/05/2019 14:12:33.360,2203
25/05/2019 14:12:33.364,2211
25/05/2019 14:12:33.368,2211
25/05/2019 14:12:33.372,2211
25/05/2019 14:12:33.376,2207
25/05/2019 14:12:33.380,2199
25/05/2019 14:12:33.384,2187
25/05/2019 14:12:33.388,2183
25/05/2019 14:12:33.392,2187
25/05/2019 14:12:33.396,2187
25/05/2019 14:12:33.400,2179
25/05/2019 14:12:33.404,2171
25/05/2019 14:12:33.408,2175
25/05/2019 14:12:33.412,2171
25/05/2019 14:12:33.416,2163
25/05/2019 14:12:33.420,2151
25/05/2019 14:12:33.424,2151
25/05/2019 14:12:33.428,2151
25/05/2019 14:12:33.432,2147
25/05/2019 14:12:33.436,2155
25/05/2019 14:12:33.440,2151
25/05/2019 14:12:33.444,2143
25/05/2019 14:12:33.448,2139
25/05/2019 14:12:33.452,2139
25/05/2019 14:12:33.456,2135
25/05/2019 14:12:33.460,2135
25/05/2019 14:12:33.464,2139
25/05/2019 14:12:33.468,2139
25/05/2019 14:12:33.472,2139
25/05/2019 14:12:33.476,2143
25/05/2019 14:12:33.480,2143
25/05/2019 14:12:33.484,2147
25/05/2019 14:12:33.488,2155
25/05/2019 14:12:33.492,2151
25/05/2019 14:12:33.496,2155
25/05/2019 14:12:33.500,2155
25/05/2019 14:12:33.504,2155
25/05/2019 14:12:33.508,2159
25/05/2019 14:12:33.512,2163
25/05/2019 14:12:33.516,2167
25/05/2019 14:12:33.520,2167
25/05/2019 14:12:33.524,2171
25/05/2019 14:12:33.528,2167
25/05/2019 14:12:33.532,2167
25/05/2019 14:12:33.536,2167
25/05/2019 14:12:33.540,2167
25/05/2019 14:12:33.544,2163
25/05/2019 14:12:33.548,2167
25/05/2019 14:12:33.552,2163
25/05/2019 14:12:33.556,2167
25/05/2019 14:12:33.560,2175
25/05/2019 14:12:33.564,2171
25/05/2019 14:12:33.568,2167
25/05/2019 14:12:33.572,2163
25/05/2019 14:12:33.576,2163
25/05/2019 14:12:33.580,2163
25/05/2019 14:12:33.584,2167
25/05/2019 14:12:33.588,2171
25/05/2019 14:12:33.592,2171
25/05/2019 14:12:33.596,2175
25/05/2019 14:12:33.600,2175
25/05/2019 14:12:33.604,2179
25/05/2019 14:12:33.608,2179
25/05/2019 14:12:33.612,2179
25/05/2019 14:12:33.616,2175
25/05/2019 14:12:33.620,2175
25/05/2019 14:12:33.624,2175
25/05/2019 14:12:33.628,2179
25/05/2019 14:12:33.632,2187
25/05/2019 14:12:33.636,2183
25/05/2019 14:12:33.640,2175
25/05/2019 14:12:33.644,2175
25/05/2019 14:12:33.648,2175
25/05/2019 14:12:33.652,2167
25/05/2019 14:12:33.656,2167
25/05/2019 14:12:33.660,2167
25/05/2019 14:12:33.664,2163
25/05/2019 14:12:33.668,2163
25/05/2019 14:12:33.672,2163
25/05/2019 14:12:33.676,2159
25/05/2019 14:12:33.680,2155
25/05/2019 14:12:33.684,2159
25/05/2019 14:12:33.688,2159
25/05/2019 14:12:33.692,2155
25/05/2019 14:12:33.696,2159
25/05/2019 14:12:33.700,2151
25/05/2019 14:12:33.704,2159
25/05/2019 14:12:33.708,2155
25/05/2019 14:12:33.712,2159
25/05/2019 14:12:33.716,2159
25/05/2019 14:12:33.720,2159
25/05/2019 14:12:33.724,2167
25/05/2019 14:12:33.728,2171
25/05/2019 14:12:33.732,2171
25/05/2019 14:12:33.736,2171
25/05/2019 14:12:33.740,2175
25/05/2019 14:12:33.744,2167
25/05/2019 14:12:33.748,2167
25/05/2019 14:12:33.752,2163
25/05/2019 14:12:33.756,2159
25/05/2019 14:12:33.760,2159
25/05/2019 14:12:33.764,2163
25/05/2019 14:12:33.768,2163
25/05/2019 14:12:33.772,2163
25/05/2019 14:12:33.776,2155
25/05/2019 14:12:33.780,2163
25/05/2019 14:12:33.784,2167
25/05/2019 14:12:33.788,2175
25/05/2019 14:12:33.792,2171
25/05/2019 14:12:33.796,2171
25/05/2019 14:12:33.800,2175
25/05/2019 14:12:33.804,2163
25/05/2019 14:12:33.808,2151
25/05/2019 14:12:33.812,2131
25/05/2019 14:12:33.816,2091
25/05/2019 14:12:33.820,2055
25/05/2019 14:12:33.824,2027
25/05/2019 14:12:33.828,2027
25/05/2019 14:12:33.832,2067
25/05/2019 14:12:33.836,2203
25/05/2019 14:12:33.840,2391
25/05/2019 14:12:33.844,2591
25/05/2019 14:12:33.848,2583
25/05/2019 14:12:33.852,2455
25/05/2019 14:12:33.856,2323
25/05/2019 14:12:33.860,2211
25/05/2019 14:12:33.864,2143
25/05/2019 14:12:33.868,2127
25/05/2019 14:12:33.872,2151
25/05/2019 14:12:33.876,2179
25/05/2019 14:12:33.880,2191
25/05/2019 14:12:33.884,2187
25/05/2019 14:12:33.888,2191
25/05/2019 14:12:33.892,2199
25/05/2019 14:12:33.896,2199
25/05/2019 14:12:33.900,2195
25/05/2019 14:12:33.904,2191
25/05/2019 14:12:33.908,2175
25/05/2019 14:12:33.912,2155
25/05/2019 14:12:33.916,2139
25/05/2019 14:12:33.920,2127
25/05/2019 14:12:33.924,2119
25/05/2019 14:12:33.928,2119
25/05/2019 14:12:33.932,2131
25/05/2019 14:12:33.936,2143
25/05/2019 14:12:33.940,2155
25/05/2019 14:12:33.944,2171
25/05/2019 14:12:33.948,2199
25/05/2019 14:12:33.952,2219
25/05/2019 14:12:33.956,2239
25/05/2019 14:12:33.960,2251
25/05/2019 14:12:33.964,2255
25/05/2019 14:12:33.968,2259
25/05/2019 14:12:33.972,2263
25/05/2019 14:12:33.976,2267
25/05/2019 14:12:33.980,2267
25/05/2019 14:12:33.984,2255
25/05/2019 14:12:33.988,2247
25/05/2019 14:12:33.992,2239
25/05/2019 14:12:33.996,2231
25/05/2019 14:12:34.000,2223
25/05/2019 14:12:34.004,2215
25/05/2019 14:12:34.008,2211
25/05/2019 14:12:34.012,2215
25/05/2019 14:12:34.016,2211
25/05/2019 14:12:34.020,2199
25/05/2019 14:12:34.024,2187
25/05/2019 14:12:34.028,2187
25/05/2019 14:12:34.032,2187
25/05/2019 14:12:34.036,2179
25/05/2019 14:12:34.040,2171
25/05/2019 14:12:34.044,2155
25/05/2019 14:12:34.048,2139
25/05/2019 14:12:34.052,2123
25/05/2019 14:12:34.056,2111
25/05/2019 14:12:34.060,2103
25/05/2019 14:12:34.064,2111
25/05/2019 14:12:34.068,2103
25/05/2019 14:12:34.072,2099
25/05/2019 14:12:34.076,2095
25/05/2019 14:12:34.080,2091
25/05/2019 14:12:34.084,2079
25/05/2019 14:12:34.088,2079
25/05/2019 14:12:34.092,2099
25/05/2019 14:12:34.096,2115
25/05/2019 14:12:34.100,2127
25/05/2019 14:12:34.104,2151
25/05/2019 14:12:34.108,2167
25/05/2019 14:12:34.112,2171
25/05/2019 14:12:34.116,2163
25/05/2019 14:12:34.120,2175
25/05/2019 14:12:34.124,2191
25/05/2019 14:12:34.128,2183
25/05/2019 14:12:34.132,2183
25/05/2019 14:12:34.136,2175
25/05/2019 14:12:34.140,2163
25/05/2019 14:12:34.144,2139
25/05/2019 14:12:34.148,2127
25/05/2019 14:12:34.152,2143
25/05/2019 14:12:34.156,2159
25/05/2019 14:12:34.160,2143
25/05/2019 14:12:34.164,2123
25/05/2019 14:12:34.168,2103
25/05/2019 14:12:34.172,2091
25/05/2019 14:12:34.176,2079
25/05/2019 14:12:34.180,2075
25/05/2019 14:12:34.184,2063
25/05/2019 14:12:34.188,2055
25/05/2019 14:12:34.192,2067
25/05/2019 14:12:34.196,2079
25/05/2019 14:12:34.200,2099
25/05/2019 14:12:34.204,2107
25/05/2019 14:12:34.208,2091
25/05/2019 14:12:34.212,2075
25/05/2019 14:12:34.216,2075
25/05/2019 14:12:34.220,2071
25/05/2019 14:12:34.224,2075
25/05/2019 14:12:34.228,2083
25/05/2019 14:12:34.232,2095
25/05/2019 14:12:34.236,2119
25/05/2019 14:12:34.240,2131
25/05/2019 14:12:34.244,2139
25/05/2019 14:12:34.248,2163
25/05/2019 14:12:34.252,2183
25/05/2019 14:12:34.256,2191
25/05/2019 14:12:34.260,2175
25/05/2019 14:12:34.264,2155
25/05/2019 14:12:34.268,2151
25/05/2019 14:12:34.272,2143
25/05/2019 14:12:34.276,2135
25/05/2019 14:12:34.280,2119
25/05/2019 14:12:34.284,2123
25/05/2019 14:12:34.288,2131
25/05/2019 14:12:34.292,2127
25/05/2019 14:12:34.296,2123
25/05/2019 14:12:34.300,2111
25/05/2019 14:12:34.304,2099
25/05/2019 14:12:34.308,2095
25/05/2019 14:12:34.312,2083
25/05/2019 14:12:34.316,2083
25/05/2019 14:12:34.320,2091
25/05/2019 14:12:34.324,2087
25/05/2019 14:12:34.328,2075
25/05/2019 14:12:34.332,2075
25/05/2019 14:12:34.336,2075
25/05/2019 14:12:34.340,2087
25/05/2019 14:12:34.344,2091
25/05/2019 14:12:34.348,2083
25/05/2019 14:12:34.352,2079
25/05/2019 14:12:34.356,2071
25/05/2019 14:12:34.360,2071
25/05/2019 14:12:34.364,2071
25/05/2019 14:12:34.368,2063
25/05/2019 14:12:34.372,2063
25/05/2019 14:12:34.376,2063
25/05/2019 14:12:34.380,2071
25/05/2019 14:12:34.384,2067
25/05/2019 14:12:34.388,2067
25/05/2019 14:12:34.392,2063
25/05/2019 14:12:34.396,2079
25/05/2019 14:12:34.400,2095
25/05/2019 14:12:34.404,2099
25/05/2019 14:12:34.408,2103
25/05/2019 14:12:34.412,2091
25/05/2019 14:12:34.416,2091
25/05/2019 14:12:34.420,2103
25/05/2019 14:12:34.424,2107
25/05/2019 14:12:34.428,2111
25/05/2019 14:12:34.432,2119
25/05/2019 14:12:34.436,2131
25/05/2019 14:12:34.440,2139
25/05/2019 14:12:34.444,2139
25/05/2019 14:12:34.448,2135
25/05/2019 14:12:34.452,2127
25/05/2019 14:12:34.456,2123
25/05/2019 14:12:34.460,2123
25/05/2019 14:12:34.464,2119
25/05/2019 14:12:34.468,2111
25/05/2019 14:12:34.472,2111
25/05/2019 14:12:34.476,2107
25/05/2019 14:12:34.480,2111
25/05/2019 14:12:34.484,2107
25/05/2019 14:12:34.488,2099
25/05/2019 14:12:34.492,2095
25/05/2019 14:12:34.496,2099
25/05/2019 14:12:34.500,2119
25/05/2019 14:12:34.504,2127
25/05/2019 14:12:34.508,2123
25/05/2019 14:12:34.512,2123
25/05/2019 14:12:34.516,2123
25/05/2019 14:12:34.520,2127
25/05/2019 14:12:34.524,2127
25/05/2019 14:12:34.528,2127
25/05/2019 14:12:34.532,2127
25/05/2019 14:12:34.536,2127
25/05/2019 14:12:34.540,2131
25/05/2019 14:12:34.544,2135
25/05/2019 14:12:34.548,2135
25/05/2019 14:12:34.552,2131
25/05/2019 14:12:34.556,2123
25/05/2019 14:12:34.560,2123
25/05/2019 14:12:34.564,2123
25/05/2019 14:12:34.568,2123
25/05/2019 14:12:34.572,2123
25/05/2019 14:12:34.576,2123
25/05/2019 14:12:34.580,2119
25/05/2019 14:12:34.584,2119
25/05/2019 14:12:34.588,2119
25/05/2019 14:12:34.592,2103
25/05/2019 14:12:34.596,2103
25/05/2019 14:12:34.600,2103
25/05/2019 14:12:34.604,2095
25/05/2019 14:12:34.608,2083
25/05/2019 14:12:34.612,2047
25/05/2019 14:12:34.616,1991
25/05/2019 14:12:34.620,1943
25/05/2019 14:12:34.624,1927
25/05/2019 14:12:34.628,1935
25/05/2019 14:12:34.632,2079
25/05/2019 14:12:34.636,2287
25/05/2019 14:12:34.640,2551
25/05/2019 14:12:34.644,2607
25/05/2019 14:12:34.648,2463
25/05/2019 14:12:34.652,2279
25/05/2019 14:12:34.656,2139
25/05/2019 14:12:34.660,2055
25/05/2019 14:12:34.664,2023
25/05/2019 14:12:34.668,2047
25/05/2019 14:12:34.672,2079
25/05/2019 14:12:34.676,2099
25/05/2019 14:12:34.680,2103
25/05/2019 14:12:34.684,2119
25/05/2019 14:12:34.688,2127
25/05/2019 14:12:34.692,2131
25/05/2019 14:12:34.696,2135
25/05/2019 14:12:34.700,2143
25/05/2019 14:12:34.704,2139
25/05/2019 14:12:34.708,2127
25/05/2019 14:12:34.712,2119
25/05/2019 14:12:34.716,2115
25/05/2019 14:12:34.720,2119
25/05/2019 14:12:34.724,2123
25/05/2019 14:12:34.728,2127
25/05/2019 14:12:34.732,2123
25/05/2019 14:12:34.736,2119
25/05/2019 14:12:34.740,2119
25/05/2019 14:12:34.744,2119
25/05/2019 14:12:34.748,2127
25/05/2019 14:12:34.752,2131
25/05/2019 14:12:34.756,2135
25/05/2019 14:12:34.760,2135
25/05/2019 14:12:34.764,2139
25/05/2019 14:12:34.768,2147
25/05/2019 14:12:34.772,2155
25/05/2019 14:12:34.776,2163
25/05/2019 14:12:34.780,2175
25/05/2019 14:12:34.784,2171
25/05/2019 14:12:34.788,2171
25/05/2019 14:12:34.792,2187
25/05/2019 14:12:34.796,2179
25/05/2019 14:12:34.800,2155
25/05/2019 14:12:34.804,2135
25/05/2019 14:12:34.808,2127
25/05/2019 14:12:34.812,2123
25/05/2019 14:12:34.816,2127
25/05/2019 14:12:34.820,2127
25/05/2019 14:12:34.824,2127
25/05/2019 14:12:34.828,2135
25/05/2019 14:12:34.832,2139
25/05/2019 14:12:34.836,2139
25/05/2019 14:12:34.840,2135
25/05/2019 14:12:34.844,2135
25/05/2019 14:12:34.848,2131
25/05/2019 14:12:34.852,2127
25/05/2019 14:12:34.856,2127
25/05/2019 14:12:34.860,2131
25/05/2019 14:12:34.864,2131
25/05/2019 14:12:34.868,2139
25/05/2019 14:12:34.872,2143
25/05/2019 14:12:34.876,2143
25/05/2019 14:12:34.880,2147
25/05/2019 14:12:34.884,2147
25/05/2019 14:12:34.888,2139
25/05/2019 14:12:34.892,2139
25/05/2019 14:12:34.896,2139
25/05/2019 14:12:34.900,2143
25/05/2019 14:12:34.904,2151
25/05/2019 14:12:34.908,2155
25/05/2019 14:12:34.912,2159
25/05/2019 14:12:34.916,2171
25/05/2019 14:12:34.920,2179
25/05/2019 14:12:34.924,2175
25/05/2019 14:12:34.928,2171
25/05/2019 14:12:34.932,2163
25/05/2019 14:12:34.936,2163
25/05/2019 14:12:34.940,2155
25/05/2019 14:12:34.944,2147
25/05/2019 14:12:34.948,2151
25/05/2019 14:12:34.952,2143
25/05/2019 14:12:34.956,2135
25/05/2019 14:12:34.960,2123
25/05/2019 14:12:34.964,2107
25/05/2019 14:12:34.968,2103
25/05/2019 14:12:34.972,2111
25/05/2019 14:12:34.976,2107
25/05/2019 14:12:34.980,2103
25/05/2019 14:12:34.984,2099
25/05/2019 14:12:34.988,2091
25/05/2019 14:12:34.992,2099
25/05/2019 14:12:34.996,2103
25/05/2019 14:12:35.000,2099
25/05/2019 14:12:35.004,2095
25/05/2019 14:12:35.008,2099
25/05/2019 14:12:35.012,2103
25/05/2019 14:12:35.016,2107
25/05/2019 14:12:35.020,2119
25/05/2019 14:12:35.024,2119
25/05/2019 14:12:35.028,2123
25/05/2019 14:12:35.032,2135
25/05/2019 14:12:35.036,2139
25/05/2019 14:12:35.040,2143
25/05/2019 14:12:35.044,2143
25/05/2019 14:12:35.048,2147
25/05/2019 14:12:35.052,2139
25/05/2019 14:12:35.056,2139
25/05/2019 14:12:35.060,2135
25/05/2019 14:12:35.064,2131
25/05/2019 14:12:35.068,2147
25/05/2019 14:12:35.072,2159
25/05/2019 14:12:35.076,2159
25/05/2019 14:12:35.080,2155
25/05/2019 14:12:35.084,2151
25/05/2019 14:12:35.088,2143
25/05/2019 14:12:35.092,2147
25/05/2019 14:12:35.096,2139
25/05/2019 14:12:35.100,2139
25/05/2019 14:12:35.104,2151
25/05/2019 14:12:35.108,2147
25/05/2019 14:12:35.112,2151
25/05/2019 14:12:35.116,2155
25/05/2019 14:12:35.120,2143
25/05/2019 14:12:35.124,2131
25/05/2019 14:12:35.128,2131
25/05/2019 14:12:35.132,2135
25/05/2019 14:12:35.136,2139
25/05/2019 14:12:35.140,2139
25/05/2019 14:12:35.144,2131
25/05/2019 14:12:35.148,2139
25/05/2019 14:12:35.152,2139
25/05/2019 14:12:35.156,2147
25/05/2019 14:12:35.160,2143
25/05/2019 14:12:35.164,2139
25/05/2019 14:12:35.168,2143
25/05/2019 14:12:35.172,2143
25/05/2019 14:12:35.176,2131
25/05/2019 14:12:35.180,2131
25/05/2019 14:12:35.184,2131
25/05/2019 14:12:35.188,2131
25/05/2019 14:12:35.192,2123
25/05/2019 14:12:35.196,2127
25/05/2019 14:12:35.200,2135
25/05/2019 14:12:35.204,2131
25/05/2019 14:12:35.208,2131
25/05/2019 14:12:35.212,2135
25/05/2019 14:12:35.216,2127
25/05/2019 14:12:35.220,2123
25/05/2019 14:12:35.224,2119
25/05/2019 14:12:35.228,2119
25/05/2019 14:12:35.232,2123
25/05/2019 14:12:35.236,2119
25/05/2019 14:12:35.240,2103
25/05/2019 14:12:35.244,2099
25/05/2019 14:12:35.248,2099
25/05/2019 14:12:35.252,2099
25/05/2019 14:12:35.256,2079
25/05/2019 14:12:35.260,2075
25/05/2019 14:12:35.264,2079
25/05/2019 14:12:35.268,2083
25/05/2019 14:12:35.272,2083
25/05/2019 14:12:35.276,2087
25/05/2019 14:12:35.280,2079
25/05/2019 14:12:35.284,2083
25/05/2019 14:12:35.288,2063
25/05/2019 14:12:35.292,2035
25/05/2019 14:12:35.296,2023
25/05/2019 14:12:35.300,1983
25/05/2019 14:12:35.304,1927
25/05/2019 14:12:35.308,1879
25/05/2019 14:12:35.312,1859
25/05/2019 14:12:35.316,1851
25/05/2019 14:12:35.320,1863
25/05/2019 14:12:35.324,1883
25/05/2019 14:12:35.328,1887
25/05/2019 14:12:35.332,1915
25/05/2019 14:12:35.336,1943
25/05/2019 14:12:35.340,1967
25/05/2019 14:12:35.344,1975
25/05/2019 14:12:35.348,1983
25/05/2019 14:12:35.352,2015
25/05/2019 14:12:35.356,2031
25/05/2019 14:12:35.360,2047
25/05/2019 14:12:35.364,2059
25/05/2019 14:12:35.368,2075
25/05/2019 14:12:35.372,2083
25/05/2019 14:12:35.376,2103
25/05/2019 14:12:35.380,2119
25/05/2019 14:12:35.384,2123
25/05/2019 14:12:35.388,2115
25/05/2019 14:12:35.392,2087
25/05/2019 14:12:35.396,2063
25/05/2019 14:12:35.400,2047
25/05/2019 14:12:35.404,2047
25/05/2019 14:12:35.408,2075
25/05/2019 14:12:35.412,2195
25/05/2019 14:12:35.416,2367
25/05/2019 14:12:35.420,2583
25/05/2019 14:12:35.424,2615
25/05/2019 14:12:35.428,2515
25/05/2019 14:12:35.432,2391
25/05/2019 14:12:35.436,2267
25/05/2019 14:12:35.440,2171
25/05/2019 14:12:35.444,2151
25/05/2019 14:12:35.448,2167
25/05/2019 14:12:35.452,2191
25/05/2019 14:12:35.456,2219
25/05/2019 14:12:35.460,2247
25/05/2019 14:12:35.464,2255
25/05/2019 14:12:35.468,2247
25/05/2019 14:12:35.472,2243
25/05/2019 14:12:35.476,2251
25/05/2019 14:12:35.480,2259
25/05/2019 14:12:35.484,2259
25/05/2019 14:12:35.488,2251
25/05/2019 14:12:35.492,2235
25/05/2019 14:12:35.496,2231
25/05/2019 14:12:35.500,2231
25/05/2019 14:12:35.504,2227
25/05/2019 14:12:35.508,2235
25/05/2019 14:12:35.512,2231
25/05/2019 14:12:35.516,2223
25/05/2019 14:12:35.520,2223
25/05/2019 14:12:35.524,2219
25/05/2019 14:12:35.528,2211
25/05/2019 14:12:35.532,2211
25/05/2019 14:12:35.536,2215
25/05/2019 14:12:35.540,2207
25/05/2019 14:12:35.544,2203
25/05/2019 14:12:35.548,2199
25/05/2019 14:12:35.552,2199
25/05/2019 14:12:35.556,2195
25/05/2019 14:12:35.560,2191
25/05/2019 14:12:35.564,2187
25/05/2019 14:12:35.568,2183
25/05/2019 14:12:35.572,2183
25/05/2019 14:12:35.576,2183
25/05/2019 14:12:35.580,2167
25/05/2019 14:12:35.584,2163
25/05/2019 14:12:35.588,2163
25/05/2019 14:12:35.592,2155
25/05/2019 14:12:35.596,2151
25/05/2019 14:12:35.600,2155
25/05/2019 14:12:35.604,2151
25/05/2019 14:12:35.608,2147
25/05/2019 14:12:35.612,2147
25/05/2019 14:12:35.616,2147
25/05/2019 14:12:35.620,2155
25/05/2019 14:12:35.624,2163
25/05/2019 14:12:35.628,2151
25/05/2019 14:12:35.632,2143
25/05/2019 14:12:35.636,2147
25/05/2019 14:12:35.640,2139
25/05/2019 14:12:35.644,2147
25/05/2019 14:12:35.648,2151
25/05/2019 14:12:35.652,2155
25/05/2019 14:12:35.656,2151
25/05/2019 14:12:35.660,2159
25/05/2019 14:12:35.664,2155
25/05/2019 14:12:35.668,2151
25/05/2019 14:12:35.672,2159
25/05/2019 14:12:35.676,2163
25/05/2019 14:12:35.680,2163
25/05/2019 14:12:35.684,2163
25/05/2019 14:12:35.688,2163
25/05/2019 14:12:35.692,2159
25/05/2019 14:12:35.696,2155
25/05/2019 14:12:35.700,2155
25/05/2019 14:12:35.704,2151
25/05/2019 14:12:35.708,2151
25/05/2019 14:12:35.712,2143
25/05/2019 14:12:35.716,2139
25/05/2019 14:12:35.720,2135
25/05/2019 14:12:35.724,2135
25/05/2019 14:12:35.728,2127
25/05/2019 14:12:35.732,2123
25/05/2019 14:12:35.736,2123
25/05/2019 14:12:35.740,2111
25/05/2019 14:12:35.744,2103
25/05/2019 14:12:35.748,2095
25/05/2019 14:12:35.752,2079
25/05/2019 14:12:35.756,2071
25/05/2019 14:12:35.760,2079
25/05/2019 14:12:35.764,2083
25/05/2019 14:12:35.768,2091
25/05/2019 14:12:35.772,2091
25/05/2019 14:12:35.776,2083
25/05/2019 14:12:35.780,2079
25/05/2019 14:12:35.784,2083
25/05/2019 14:12:35.788,2083
25/05/2019 14:12:35.792,2083
25/05/2019 14:12:35.796,2079
25/05/2019 14:12:35.800,2087
25/05/2019 14:12:35.804,2075
25/05/2019 14:12:35.808,2079
25/05/2019 14:12:35.812,2083
25/05/2019 14:12:35.816,2095
25/05/2019 14:12:35.820,2095
25/05/2019 14:12:35.824,2103
25/05/2019 14:12:35.828,2111
25/05/2019 14:12:35.832,2115
25/05/2019 14:12:35.836,2095
25/05/2019 14:12:35.840,2091
25/05/2019 14:12:35.844,2103
25/05/2019 14:12:35.848,2091
25/05/2019 14:12:35.852,2095
25/05/2019 14:12:35.856,2103
25/05/2019 14:12:35.860,2095
25/05/2019 14:12:35.864,2099
25/05/2019 14:12:35.868,2091
25/05/2019 14:12:35.872,2083
25/05/2019 14:12:35.876,2083
25/05/2019 14:12:35.880,2083
25/05/2019 14:12:35.884,2087
25/05/2019 14:12:35.888,2103
25/05/2019 14:12:35.892,2111
25/05/2019 14:12:35.896,2103
25/05/2019 14:12:35.900,2095
25/05/2019 14:12:35.904,2103
25/05/2019 14:12:35.908,2107
25/05/2019 14:12:35.912,2115
25/05/2019 14:12:35.916,2135
25/05/2019 14:12:35.920,2131
25/05/2019 14:12:35.924,2127
25/05/2019 14:12:35.928,2127
25/05/2019 14:12:35.932,2127
25/05/2019 14:12:35.936,2139
25/05/2019 14:12:35.940,2131
25/05/2019 14:12:35.944,2139
25/05/2019 14:12:35.948,2151
25/05/2019 14:12:35.952,2159
25/05/2019 14:12:35.956,2163
25/05/2019 14:12:35.960,2151
25/05/2019 14:12:35.964,2151
25/05/2019 14:12:35.968,2155
25/05/2019 14:12:35.972,2147
25/05/2019 14:12:35.976,2147
25/05/2019 14:12:35.980,2155
25/05/2019 14:12:35.984,2159
25/05/2019 14:12:35.988,2155
25/05/2019 14:12:35.992,2155
25/05/2019 14:12:35.996,2143
25/05/2019 14:12:36.000,2151
25/05/2019 14:12:36.004,2151
25/05/2019 14:12:36.008,2135
25/05/2019 14:12:36.012,2143
25/05/2019 14:12:36.016,2143
25/05/2019 14:12:36.020,2135
25/05/2019 14:12:36.024,2127
25/05/2019 14:12:36.028,2131
25/05/2019 14:12:36.032,2123
25/05/2019 14:12:36.036,2123
25/05/2019 14:12:36.040,2127
25/05/2019 14:12:36.044,2131
25/05/2019 14:12:36.048,2131
25/05/2019 14:12:36.052,2127
25/05/2019 14:12:36.056,2135
25/05/2019 14:12:36.060,2151
25/05/2019 14:12:36.064,2147
25/05/2019 14:12:36.068,2143
25/05/2019 14:12:36.072,2143
25/05/2019 14:12:36.076,2143
25/05/2019 14:12:36.080,2147
25/05/2019 14:12:36.084,2143
25/05/2019 14:12:36.088,2139
25/05/2019 14:12:36.092,2139
25/05/2019 14:12:36.096,2147
25/05/2019 14:12:36.100,2143
25/05/2019 14:12:36.104,2143
25/05/2019 14:12:36.108,2143
25/05/2019 14:12:36.112,2139
25/05/2019 14:12:36.116,2135
25/05/2019 14:12:36.120,2135
25/05/2019 14:12:36.124,2135
25/05/2019 14:12:36.128,2123
25/05/2019 14:12:36.132,2119
25/05/2019 14:12:36.136,2123
25/05/2019 14:12:36.140,2123
25/05/2019 14:12:36.144,2123
25/05/2019 14:12:36.148,2123
25/05/2019 14:12:36.152,2123
25/05/2019 14:12:36.156,2127
25/05/2019 14:12:36.160,2111
25/05/2019 14:12:36.164,2095
25/05/2019 14:12:36.168,2051
25/05/2019 14:12:36.172,1999
25/05/2019 14:12:36.176,1963
25/05/2019 14:12:36.180,1959
25/05/2019 14:12:36.184,1991
25/05/2019 14:12:36.188,2123
25/05/2019 14:12:36.192,2303
25/05/2019 14:12:36.196,2511
25/05/2019 14:12:36.200,2507
25/05/2019 14:12:36.204,2387
25/05/2019 14:12:36.208,2259
25/05/2019 14:12:36.212,2135
25/05/2019 14:12:36.216,2055
25/05/2019 14:12:36.220,2027
25/05/2019 14:12:36.224,2039
25/05/2019 14:12:36.228,2071
25/05/2019 14:12:36.232,2091
25/05/2019 14:12:36.236,2095
25/05/2019 14:12:36.240,2095
25/05/2019 14:12:36.244,2091
25/05/2019 14:12:36.248,2099
25/05/2019 14:12:36.252,2107
25/05/2019 14:12:36.256,2111
25/05/2019 14:12:36.260,2111
25/05/2019 14:12:36.264,2111
25/05/2019 14:12:36.268,2111
25/05/2019 14:12:36.272,2111
25/05/2019 14:12:36.276,2107
25/05/2019 14:12:36.280,2119
25/05/2019 14:12:36.284,2123
25/05/2019 14:12:36.288,2127
25/05/2019 14:12:36.292,2131
25/05/2019 14:12:36.296,2131
25/05/2019 14:12:36.300,2127
25/05/2019 14:12:36.304,2123
25/05/2019 14:12:36.308,2127
25/05/2019 14:12:36.312,2131
25/05/2019 14:12:36.316,2131
25/05/2019 14:12:36.320,2139
25/05/2019 14:12:36.324,2143
25/05/2019 14:12:36.328,2139
25/05/2019 14:12:36.332,2139
25/05/2019 14:12:36.336,2139
25/05/2019 14:12:36.340,2131
25/05/2019 14:12:36.344,2123
25/05/2019 14:12:36.348,2119
25/05/2019 14:12:36.352,2123
25/05/2019 14:12:36.356,2127
25/05/2019 14:12:36.360,2123
25/05/2019 14:12:36.364,2123
25/05/2019 14:12:36.368,2123
25/05/2019 14:12:36.372,2119
25/05/2019 14:12:36.376,2111
25/05/2019 14:12:36.380,2111
25/05/2019 14:12:36.384,2111
25/05/2019 14:12:36.388,2115
25/05/2019 14:12:36.392,2115
25/05/2019 14:12:36.396,2111
25/05/2019 14:12:36.400,2111
25/05/2019 14:12:36.404,2095
25/05/2019 14:12:36.408,2103
25/05/2019 14:12:36.412,2115
25/05/2019 14:12:36.416,2123
25/05/2019 14:12:36.420,2123
25/05/2019 14:12:36.424,2119
25/05/2019 14:12:36.428,2119
25/05/2019 14:12:36.432,2123
25/05/2019 14:12:36.436,2123
25/05/2019 14:12:36.440,2119
25/05/2019 14:12:36.444,2115
25/05/2019 14:12:36.448,2119
25/05/2019 14:12:36.452,2123
25/05/2019 14:12:36.456,2135
25/05/2019 14:12:36.460,2127
25/05/2019 14:12:36.464,2127
25/05/2019 14:12:36.468,2135
25/05/2019 14:12:36.472,2143
25/05/2019 14:12:36.476,2143
25/05/2019 14:12:36.480,2143
25/05/2019 14:12:36.484,2131
25/05/2019 14:12:36.488,2119
25/05/2019 14:12:36.492,2119
25/05/2019 14:12:36.496,2123
25/05/2019 14:12:36.500,2127
25/05/2019 14:12:36.504,2127
25/05/2019 14:12:36.508,2127
25/05/2019 14:12:36.512,2123
25/05/2019 14:12:36.516,2119
25/05/2019 14:12:36.520,2115
25/05/2019 14:12:36.524,2103
25/05/2019 14:12:36.528,2095
25/05/2019 14:12:36.532,2095
25/05/2019 14:12:36.536,2095
25/05/2019 14:12:36.540,2107
25/05/2019 14:12:36.544,2107
25/05/2019 14:12:36.548,2111
25/05/2019 14:12:36.552,2111
25/05/2019 14:12:36.556,2107
25/05/2019 14:12:36.560,2099
25/05/2019 14:12:36.564,2103
25/05/2019 14:12:36.568,2111
25/05/2019 14:12:36.572,2115
25/05/2019 14:12:36.576,2115
25/05/2019 14:12:36.580,2111
25/05/2019 14:12:36.584,2111
25/05/2019 14:12:36.588,2115
25/05/2019 14:12:36.592,2115
25/05/2019 14:12:36.596,2115
25/05/2019 14:12:36.600,2115
25/05/2019 14:12:36.604,2115
25/05/2019 14:12:36.608,2119
25/05/2019 14:12:36.612,2111
25/05/2019 14:12:36.616,2119
25/05/2019 14:12:36.620,2115
25/05/2019 14:12:36.624,2119
25/05/2019 14:12:36.628,2127
25/05/2019 14:12:36.632,2127
25/05/2019 14:12:36.636,2127
25/05/2019 14:12:36.640,2115
25/05/2019 14:12:36.644,2111
25/05/2019 14:12:36.648,2119
25/05/2019 14:12:36.652,2123
25/05/2019 14:12:36.656,2119
25/05/2019 14:12:36.660,2119
25/05/2019 14:12:36.664,2119
25/05/2019 14:12:36.668,2119
25/05/2019 14:12:36.672,2115
25/05/2019 14:12:36.676,2115
25/05/2019 14:12:36.680,2119
25/05/2019 14:12:36.684,2119
25/05/2019 14:12:36.688,2115
25/05/2019 14:12:36.692,2119
25/05/2019 14:12:36.696,2119
25/05/2019 14:12:36.700,2123
25/05/2019 14:12:36.704,2115
25/05/2019 14:12:36.708,2119
25/05/2019 14:12:36.712,2127
25/05/2019 14:12:36.716,2123
25/05/2019 14:12:36.720,2119
25/05/2019 14:12:36.724,2115
25/05/2019 14:12:36.728,2107
25/05/2019 14:12:36.732,2107
25/05/2019 14:12:36.736,2111
25/05/2019 14:12:36.740,2111
25/05/2019 14:12:36.744,2115
25/05/2019 14:12:36.748,2123
25/05/2019 14:12:36.752,2119
25/05/2019 14:12:36.756,2107
25/05/2019 14:12:36.760,2107
25/05/2019 14:12:36.764,2111
25/05/2019 14:12:36.768,2111
25/05/2019 14:12:36.772,2115
25/05/2019 14:12:36.776,2107
25/05/2019 14:12:36.780,2111
25/05/2019 14:12:36.784,2111
25/05/2019 14:12:36.788,2111
25/05/2019 14:12:36.792,2119
25/05/2019 14:12:36.796,2119
25/05/2019 14:12:36.800,2115
25/05/2019 14:12:36.804,2111
25/05/2019 14:12:36.808,2111
25/05/2019 14:12:36.812,2115
25/05/2019 14:12:36.816,2115
25/05/2019 14:12:36.820,2111
25/05/2019 14:12:36.824,2095
25/05/2019 14:12:36.828,2095
25/05/2019 14:12:36.832,2099
25/05/2019 14:12:36.836,2099
25/05/2019 14:12:36.840,2103
25/05/2019 14:12:36.844,2107
25/05/2019 14:12:36.848,2103
25/05/2019 14:12:36.852,2103
25/05/2019 14:12:36.856,2107
25/05/2019 14:12:36.860,2111
25/05/2019 14:12:36.864,2115
25/05/2019 14:12:36.868,2111
25/05/2019 14:12:36.872,2111
25/05/2019 14:12:36.876,2107
25/05/2019 14:12:36.880,2111
25/05/2019 14:12:36.884,2111
25/05/2019 14:12:36.888,2107
25/05/2019 14:12:36.892,2103
25/05/2019 14:12:36.896,2107
25/05/2019 14:12:36.900,2115
25/05/2019 14:12:36.904,2119
25/05/2019 14:12:36.908,2111
25/05/2019 14:12:36.912,2115
25/05/2019 14:12:36.916,2115
25/05/2019 14:12:36.920,2095
25/05/2019 14:12:36.924,2095
25/05/2019 14:12:36.928,2115
25/05/2019 14:12:36.932,2115
25/05/2019 14:12:36.936,2095
25/05/2019 14:12:36.940,2099
25/05/2019 14:12:36.944,2107
25/05/2019 14:12:36.948,2107
25/05/2019 14:12:36.952,2099
25/05/2019 14:12:36.956,2091
25/05/2019 14:12:36.960,2067
25/05/2019 14:12:36.964,2035
25/05/2019 14:12:36.968,1983
25/05/2019 14:12:36.972,1939
25/05/2019 14:12:36.976,1919
25/05/2019 14:12:36.980,1931
25/05/2019 14:12:36.984,2027
25/05/2019 14:12:36.988,2207
25/05/2019 14:12:36.992,2459
