Timestamp,ECG
25/05/2019 15:43:39.444,2835
25/05/2019 15:43:39.448,2879
25/05/2019 15:43:39.452,3099
25/05/2019 15:43:39.456,3187
25/05/2019 15:43:39.460,3259
25/05/2019 15:43:39.464,3295
25/05/2019 15:43:39.468,3415
25/05/2019 15:43:39.472,3419
25/05/2019 15:43:39.476,3395
25/05/2019 15:43:39.480,3363
25/05/2019 15:43:39.484,3463
25/05/2019 15:43:39.488,3483
25/05/2019 15:43:39.492,3447
25/05/2019 15:43:39.496,3399
25/05/2019 15:43:39.500,3439
25/05/2019 15:43:39.504,3455
25/05/2019 15:43:39.508,3399
25/05/2019 15:43:39.512,3355
25/05/2019 15:43:39.516,3383
25/05/2019 15:43:39.520,3387
25/05/2019 15:43:39.524,3203
25/05/2019 15:43:39.528,3127
25/05/2019 15:43:39.532,3147
25/05/2019 15:43:39.536,3259
25/05/2019 15:43:39.540,3243
25/05/2019 15:43:39.544,3223
25/05/2019 15:43:39.548,3235
25/05/2019 15:43:39.552,3371
25/05/2019 15:43:39.556,3383
25/05/2019 15:43:39.560,3383
25/05/2019 15:43:39.564,3359
25/05/2019 15:43:39.568,3435
25/05/2019 15:43:39.572,3403
25/05/2019 15:43:39.576,3371
25/05/2019 15:43:39.580,3343
25/05/2019 15:43:39.584,3439
25/05/2019 15:43:39.588,3439
25/05/2019 15:43:39.592,3379
25/05/2019 15:43:39.596,3315
25/05/2019 15:43:39.600,3351
25/05/2019 15:43:39.604,3327
25/05/2019 15:43:39.608,3199
25/05/2019 15:43:39.612,3107
25/05/2019 15:43:39.616,3131
25/05/2019 15:43:39.620,3135
25/05/2019 15:43:39.624,3091
25/05/2019 15:43:39.628,3107
25/05/2019 15:43:39.632,3183
25/05/2019 15:43:39.636,3315
25/05/2019 15:43:39.640,3319
25/05/2019 15:43:39.644,3323
25/05/2019 15:43:39.648,3363
25/05/2019 15:43:39.652,3519
25/05/2019 15:43:39.656,3583
25/05/2019 15:43:39.660,3523
25/05/2019 15:43:39.664,3359
25/05/2019 15:43:39.668,3323
25/05/2019 15:43:39.672,3255
25/05/2019 15:43:39.676,3231
25/05/2019 15:43:39.680,3219
25/05/2019 15:43:39.684,3327
25/05/2019 15:43:39.688,3331
25/05/2019 15:43:39.692,3299
25/05/2019 15:43:39.696,3263
25/05/2019 15:43:39.700,3327
25/05/2019 15:43:39.704,3335
25/05/2019 15:43:39.708,3283
25/05/2019 15:43:39.712,3239
25/05/2019 15:43:39.716,3275
25/05/2019 15:43:39.720,3359
25/05/2019 15:43:39.724,3327
25/05/2019 15:43:39.728,3263
25/05/2019 15:43:39.732,3207
25/05/2019 15:43:39.736,3179
25/05/2019 15:43:39.740,3047
25/05/2019 15:43:39.744,2983
25/05/2019 15:43:39.748,2971
25/05/2019 15:43:39.752,3123
25/05/2019 15:43:39.756,3247
25/05/2019 15:43:39.760,3523
25/05/2019 15:43:39.764,3791
25/05/2019 15:43:39.768,3879
25/05/2019 15:43:39.772,3647
25/05/2019 15:43:39.776,3459
25/05/2019 15:43:39.780,3431
25/05/2019 15:43:39.784,3507
25/05/2019 15:43:39.788,3451
25/05/2019 15:43:39.792,3331
25/05/2019 15:43:39.796,3239
25/05/2019 15:43:39.800,3271
25/05/2019 15:43:39.804,3251
25/05/2019 15:43:39.808,3187
25/05/2019 15:43:39.812,3139
25/05/2019 15:43:39.816,3191
25/05/2019 15:43:39.820,3243
25/05/2019 15:43:39.824,3199
25/05/2019 15:43:39.828,3175
25/05/2019 15:43:39.832,3187
25/05/2019 15:43:39.836,3207
25/05/2019 15:43:39.840,3091
25/05/2019 15:43:39.844,3131
25/05/2019 15:43:39.848,2903
25/05/2019 15:43:39.852,4095
25/05/2019 15:43:39.856,4095
25/05/2019 15:43:39.860,4095
25/05/2019 15:43:39.864,4095
25/05/2019 15:43:39.868,3659
25/05/2019 15:43:39.872,1683
25/05/2019 15:43:39.876,1407
25/05/2019 15:43:39.880,419
25/05/2019 15:43:39.884,1079
25/05/2019 15:43:39.888,4095
25/05/2019 15:43:39.892,3863
25/05/2019 15:43:39.896,4023
25/05/2019 15:43:39.900,4095
25/05/2019 15:43:39.904,4095
25/05/2019 15:43:39.908,4095
25/05/2019 15:43:39.912,4095
25/05/2019 15:43:39.916,4095
25/05/2019 15:43:39.920,4095
25/05/2019 15:43:39.924,4095
25/05/2019 15:43:39.928,3907
25/05/2019 15:43:39.932,7
25/05/2019 15:43:39.936,4095
25/05/2019 15:43:39.940,4095
25/05/2019 15:43:39.944,4095
25/05/2019 15:43:39.948,7
25/05/2019 15:43:39.952,7
25/05/2019 15:43:39.956,7
25/05/2019 15:43:39.960,7
25/05/2019 15:43:39.964,7
25/05/2019 15:43:39.968,7
25/05/2019 15:43:39.972,7
25/05/2019 15:43:39.976,7
25/05/2019 15:43:39.980,7
25/05/2019 15:43:39.984,7
25/05/2019 15:43:39.988,4095
25/05/2019 15:43:39.992,4095
25/05/2019 15:43:39.996,4095
25/05/2019 15:43:40.000,67
25/05/2019 15:43:40.004,4095
25/05/2019 15:43:40.008,4095
25/05/2019 15:43:40.012,4095
25/05/2019 15:43:40.016,4095
25/05/2019 15:43:40.020,4095
25/05/2019 15:43:40.024,4095
25/05/2019 15:43:40.028,4095
25/05/2019 15:43:40.032,4095
25/05/2019 15:43:40.036,4095
25/05/2019 15:43:40.040,4095
25/05/2019 15:43:40.044,4095
25/05/2019 15:43:40.048,4095
25/05/2019 15:43:40.052,4095
25/05/2019 15:43:40.056,4095
25/05/2019 15:43:40.060,4095
25/05/2019 15:43:40.064,4095
25/05/2019 15:43:40.068,4095
25/05/2019 15:43:40.072,4095
25/05/2019 15:43:40.076,4095
25/05/2019 15:43:40.080,4095
25/05/2019 15:43:40.084,4095
25/05/2019 15:43:40.088,4095
25/05/2019 15:43:40.092,3883
25/05/2019 15:43:40.096,3907
25/05/2019 15:43:40.100,4095
25/05/2019 15:43:40.104,3367
25/05/2019 15:43:40.108,3219
25/05/2019 15:43:40.112,7
25/05/2019 15:43:40.116,7
25/05/2019 15:43:40.120,4095
25/05/2019 15:43:40.124,4095
25/05/2019 15:43:40.128,3767
25/05/2019 15:43:40.132,7
25/05/2019 15:43:40.136,2851
25/05/2019 15:43:40.140,1871
25/05/2019 15:43:40.144,2143
25/05/2019 15:43:40.148,3227
25/05/2019 15:43:40.152,4071
25/05/2019 15:43:40.156,4095
25/05/2019 15:43:40.160,4095
25/05/2019 15:43:40.164,4095
25/05/2019 15:43:40.168,4095
25/05/2019 15:43:40.172,3951
25/05/2019 15:43:40.176,3135
25/05/2019 15:43:40.180,3743
25/05/2019 15:43:40.184,3207
25/05/2019 15:43:40.188,2395
25/05/2019 15:43:40.192,659
25/05/2019 15:43:40.196,2095
25/05/2019 15:43:40.200,1527
25/05/2019 15:43:40.204,35
25/05/2019 15:43:40.208,3819
25/05/2019 15:43:40.212,4095
25/05/2019 15:43:40.216,2847
25/05/2019 15:43:40.220,7
25/05/2019 15:43:40.224,107
25/05/2019 15:43:40.228,7
25/05/2019 15:43:40.232,7
25/05/2019 15:43:40.236,7
25/05/2019 15:43:40.240,3823
25/05/2019 15:43:40.244,367
25/05/2019 15:43:40.248,3151
25/05/2019 15:43:40.252,4091
25/05/2019 15:43:40.256,3223
25/05/2019 15:43:40.260,4095
25/05/2019 15:43:40.264,4095
25/05/2019 15:43:40.268,2211
25/05/2019 15:43:40.272,4095
25/05/2019 15:43:40.276,4095
25/05/2019 15:43:40.280,4095
25/05/2019 15:43:40.284,4095
25/05/2019 15:43:40.288,3759
25/05/2019 15:43:40.292,4095
25/05/2019 15:43:40.296,4095
25/05/2019 15:43:40.300,4095
25/05/2019 15:43:40.304,4095
25/05/2019 15:43:40.308,2971
25/05/2019 15:43:40.312,7
25/05/2019 15:43:40.316,7
25/05/2019 15:43:40.320,4083
25/05/2019 15:43:40.324,4095
25/05/2019 15:43:40.328,4095
25/05/2019 15:43:40.332,4095
25/05/2019 15:43:40.336,55
25/05/2019 15:43:40.340,7
25/05/2019 15:43:40.344,4095
25/05/2019 15:43:40.348,4095
25/05/2019 15:43:40.352,4095
25/05/2019 15:43:40.356,4095
25/05/2019 15:43:40.360,4095
25/05/2019 15:43:40.364,4095
25/05/2019 15:43:40.368,4095
25/05/2019 15:43:40.372,4095
25/05/2019 15:43:40.376,4095
25/05/2019 15:43:40.380,4095
25/05/2019 15:43:40.384,4095
25/05/2019 15:43:40.388,4095
25/05/2019 15:43:40.392,3143
25/05/2019 15:43:40.396,1491
25/05/2019 15:43:40.400,4091
25/05/2019 15:43:40.404,4095
25/05/2019 15:43:40.408,4095
25/05/2019 15:43:40.412,4095
25/05/2019 15:43:40.416,4095
25/05/2019 15:43:40.420,3687
25/05/2019 15:43:40.424,511
25/05/2019 15:43:40.428,4095
25/05/2019 15:43:40.432,4095
25/05/2019 15:43:40.436,4095
25/05/2019 15:43:40.440,4095
25/05/2019 15:43:40.444,3291
25/05/2019 15:43:40.448,4095
25/05/2019 15:43:40.452,3291
25/05/2019 15:43:40.456,7
25/05/2019 15:43:40.460,7
25/05/2019 15:43:40.464,7
25/05/2019 15:43:40.468,7
25/05/2019 15:43:40.472,7
25/05/2019 15:43:40.476,7
25/05/2019 15:43:40.480,3
25/05/2019 15:43:40.484,7
25/05/2019 15:43:40.488,4095
25/05/2019 15:43:40.492,4095
25/05/2019 15:43:40.496,4095
25/05/2019 15:43:40.500,4095
25/05/2019 15:43:40.504,4095
25/05/2019 15:43:40.508,4095
25/05/2019 15:43:40.512,4047
25/05/2019 15:43:40.516,4095
25/05/2019 15:43:40.520,1083
25/05/2019 15:43:40.524,1379
25/05/2019 15:43:40.528,1859
25/05/2019 15:43:40.532,2179
25/05/2019 15:43:40.536,2903
25/05/2019 15:43:40.540,4095
25/05/2019 15:43:40.544,4095
25/05/2019 15:43:40.548,4095
25/05/2019 15:43:40.552,4095
25/05/2019 15:43:40.556,4095
25/05/2019 15:43:40.560,4095
25/05/2019 15:43:40.564,4095
25/05/2019 15:43:40.568,2671
25/05/2019 15:43:40.572,7
25/05/2019 15:43:40.576,7
25/05/2019 15:43:40.580,7
25/05/2019 15:43:40.584,7
25/05/2019 15:43:40.588,7
25/05/2019 15:43:40.592,7
25/05/2019 15:43:40.596,7
25/05/2019 15:43:40.600,7
25/05/2019 15:43:40.604,7
25/05/2019 15:43:40.608,4095
25/05/2019 15:43:40.612,4095
25/05/2019 15:43:40.616,4095
25/05/2019 15:43:40.620,4095
25/05/2019 15:43:40.624,4095
25/05/2019 15:43:40.628,4095
25/05/2019 15:43:40.632,4095
25/05/2019 15:43:40.636,4095
25/05/2019 15:43:40.640,4095
25/05/2019 15:43:40.644,4095
25/05/2019 15:43:40.648,4095
25/05/2019 15:43:40.652,2703
25/05/2019 15:43:40.656,4095
25/05/2019 15:43:40.660,4095
25/05/2019 15:43:40.664,4095
25/05/2019 15:43:40.668,4039
25/05/2019 15:43:40.672,4095
25/05/2019 15:43:40.676,4095
25/05/2019 15:43:40.680,4095
25/05/2019 15:43:40.684,4095
25/05/2019 15:43:40.688,7
25/05/2019 15:43:40.692,4095
25/05/2019 15:43:40.696,4095
25/05/2019 15:43:40.700,4095
25/05/2019 15:43:40.704,4095
25/05/2019 15:43:40.708,4095
25/05/2019 15:43:40.712,4095
25/05/2019 15:43:40.716,4095
25/05/2019 15:43:40.720,4095
25/05/2019 15:43:40.724,4095
25/05/2019 15:43:40.728,4095
25/05/2019 15:43:40.732,7
25/05/2019 15:43:40.736,7
25/05/2019 15:43:40.740,2255
25/05/2019 15:43:40.744,4095
25/05/2019 15:43:40.748,2259
25/05/2019 15:43:40.752,7
25/05/2019 15:43:40.756,4007
25/05/2019 15:43:40.760,4095
25/05/2019 15:43:40.764,4095
25/05/2019 15:43:40.768,4095
25/05/2019 15:43:40.772,4095
25/05/2019 15:43:40.776,4095
25/05/2019 15:43:40.780,4095
25/05/2019 15:43:40.784,4095
25/05/2019 15:43:40.788,4095
25/05/2019 15:43:40.792,4095
25/05/2019 15:43:40.796,4095
25/05/2019 15:43:40.800,4095
25/05/2019 15:43:40.804,4095
25/05/2019 15:43:40.808,4059
25/05/2019 15:43:40.812,7
25/05/2019 15:43:40.816,7
25/05/2019 15:43:40.820,7
25/05/2019 15:43:40.824,7
25/05/2019 15:43:40.828,7
25/05/2019 15:43:40.832,7
25/05/2019 15:43:40.836,7
25/05/2019 15:43:40.840,7
25/05/2019 15:43:40.844,4095
25/05/2019 15:43:40.848,3103
25/05/2019 15:43:40.852,4095
25/05/2019 15:43:40.856,4095
25/05/2019 15:43:40.860,4095
25/05/2019 15:43:40.864,4095
25/05/2019 15:43:40.868,7
25/05/2019 15:43:40.872,3
25/05/2019 15:43:40.876,4095
25/05/2019 15:43:40.880,7
25/05/2019 15:43:40.884,4095
25/05/2019 15:43:40.888,4095
25/05/2019 15:43:40.892,4095
25/05/2019 15:43:40.896,4095
25/05/2019 15:43:40.900,4095
25/05/2019 15:43:40.904,4095
25/05/2019 15:43:40.908,4095
25/05/2019 15:43:40.912,359
25/05/2019 15:43:40.916,4095
25/05/2019 15:43:40.920,4095
25/05/2019 15:43:40.924,4095
25/05/2019 15:43:40.928,7
25/05/2019 15:43:40.932,859
25/05/2019 15:43:40.936,7
25/05/2019 15:43:40.940,7
25/05/2019 15:43:40.944,7
25/05/2019 15:43:40.948,7
25/05/2019 15:43:40.952,7
25/05/2019 15:43:40.956,7
25/05/2019 15:43:40.960,7
25/05/2019 15:43:40.964,7
25/05/2019 15:43:40.968,7
25/05/2019 15:43:40.972,7
25/05/2019 15:43:40.976,111
25/05/2019 15:43:40.980,4095
25/05/2019 15:43:40.984,4095
25/05/2019 15:43:40.988,4095
25/05/2019 15:43:40.992,4095
25/05/2019 15:43:40.996,4095
25/05/2019 15:43:41.000,4095
25/05/2019 15:43:41.004,4095
25/05/2019 15:43:41.008,2683
25/05/2019 15:43:41.012,3975
25/05/2019 15:43:41.016,4095
25/05/2019 15:43:41.020,4095
25/05/2019 15:43:41.024,7
25/05/2019 15:43:41.028,4095
25/05/2019 15:43:41.032,7
25/05/2019 15:43:41.036,7
25/05/2019 15:43:41.040,3927
25/05/2019 15:43:41.044,4095
25/05/2019 15:43:41.048,4095
25/05/2019 15:43:41.052,4095
25/05/2019 15:43:41.056,1587
25/05/2019 15:43:41.060,167
25/05/2019 15:43:41.064,4095
25/05/2019 15:43:41.068,3391
25/05/2019 15:43:41.072,7
25/05/2019 15:43:41.076,4095
25/05/2019 15:43:41.080,4095
25/05/2019 15:43:41.084,1255
25/05/2019 15:43:41.088,7
25/05/2019 15:43:41.092,863
25/05/2019 15:43:41.096,4079
25/05/2019 15:43:41.100,4095
25/05/2019 15:43:41.104,4095
25/05/2019 15:43:41.108,4095
25/05/2019 15:43:41.112,4095
25/05/2019 15:43:41.116,4095
25/05/2019 15:43:41.120,4095
25/05/2019 15:43:41.124,4095
25/05/2019 15:43:41.128,4095
25/05/2019 15:43:41.132,4095
25/05/2019 15:43:41.136,4095
25/05/2019 15:43:41.140,4095
25/05/2019 15:43:41.144,4095
25/05/2019 15:43:41.148,4095
25/05/2019 15:43:41.152,4095
25/05/2019 15:43:41.156,4095
25/05/2019 15:43:41.160,4095
25/05/2019 15:43:41.164,4095
25/05/2019 15:43:41.168,4095
25/05/2019 15:43:41.172,4095
25/05/2019 15:43:41.176,4095
25/05/2019 15:43:41.180,4095
25/05/2019 15:43:41.184,4095
25/05/2019 15:43:41.188,4095
25/05/2019 15:43:41.192,4095
25/05/2019 15:43:41.196,4095
25/05/2019 15:43:41.200,4095
25/05/2019 15:43:41.204,4095
25/05/2019 15:43:41.208,4095
25/05/2019 15:43:41.212,4095
25/05/2019 15:43:41.216,4095
25/05/2019 15:43:41.220,4095
25/05/2019 15:43:41.224,4095
25/05/2019 15:43:41.228,4095
25/05/2019 15:43:41.232,4095
25/05/2019 15:43:41.236,4095
25/05/2019 15:43:41.240,4095
25/05/2019 15:43:41.244,4095
25/05/2019 15:43:41.248,4095
25/05/2019 15:43:41.252,4095
25/05/2019 15:43:41.256,4095
25/05/2019 15:43:41.260,4095
25/05/2019 15:43:41.264,4095
25/05/2019 15:43:41.268,4095
25/05/2019 15:43:41.272,4095
25/05/2019 15:43:41.276,4095
25/05/2019 15:43:41.280,4095
25/05/2019 15:43:41.284,4095
25/05/2019 15:43:41.288,4095
25/05/2019 15:43:41.292,4095
25/05/2019 15:43:41.296,4095
25/05/2019 15:43:41.300,4095
25/05/2019 15:43:41.304,4095
25/05/2019 15:43:41.308,4095
25/05/2019 15:43:41.312,4095
25/05/2019 15:43:41.316,4095
25/05/2019 15:43:41.320,4095
25/05/2019 15:43:41.324,4095
25/05/2019 15:43:41.328,4095
25/05/2019 15:43:41.332,4095
25/05/2019 15:43:41.336,4095
25/05/2019 15:43:41.340,4095
25/05/2019 15:43:41.344,3887
25/05/2019 15:43:41.348,3619
25/05/2019 15:43:41.352,3435
25/05/2019 15:43:41.356,3251
25/05/2019 15:43:41.360,3111
25/05/2019 15:43:41.364,3055
25/05/2019 15:43:41.368,3067
25/05/2019 15:43:41.372,2999
25/05/2019 15:43:41.376,2927
25/05/2019 15:43:41.380,2915
25/05/2019 15:43:41.384,3007
25/05/2019 15:43:41.388,2971
25/05/2019 15:43:41.392,2923
25/05/2019 15:43:41.396,2895
25/05/2019 15:43:41.400,2967
25/05/2019 15:43:41.404,2923
25/05/2019 15:43:41.408,2903
25/05/2019 15:43:41.412,2883
25/05/2019 15:43:41.416,2943
25/05/2019 15:43:41.420,2895
25/05/2019 15:43:41.424,2775
25/05/2019 15:43:41.428,2651
25/05/2019 15:43:41.432,2679
25/05/2019 15:43:41.436,2687
25/05/2019 15:43:41.440,2683
25/05/2019 15:43:41.444,2743
25/05/2019 15:43:41.448,3011
25/05/2019 15:43:41.452,3355
25/05/2019 15:43:41.456,3423
25/05/2019 15:43:41.460,3231
25/05/2019 15:43:41.464,3075
25/05/2019 15:43:41.468,3015
25/05/2019 15:43:41.472,2927
25/05/2019 15:43:41.476,2875
25/05/2019 15:43:41.480,2863
25/05/2019 15:43:41.484,2911
25/05/2019 15:43:41.488,2859
25/05/2019 15:43:41.492,2819
25/05/2019 15:43:41.496,2799
25/05/2019 15:43:41.500,2879
25/05/2019 15:43:41.504,2863
25/05/2019 15:43:41.508,2847
25/05/2019 15:43:41.512,2827
25/05/2019 15:43:41.516,2911
25/05/2019 15:43:41.520,2903
25/05/2019 15:43:41.524,2871
25/05/2019 15:43:41.528,2827
25/05/2019 15:43:41.532,2879
25/05/2019 15:43:41.536,2899
25/05/2019 15:43:41.540,2863
25/05/2019 15:43:41.544,2819
25/05/2019 15:43:41.548,2867
25/05/2019 15:43:41.552,2891
25/05/2019 15:43:41.556,2855
25/05/2019 15:43:41.560,2843
25/05/2019 15:43:41.564,2895
25/05/2019 15:43:41.568,2955
25/05/2019 15:43:41.572,2919
25/05/2019 15:43:41.576,2887
25/05/2019 15:43:41.580,2895
25/05/2019 15:43:41.584,2931
25/05/2019 15:43:41.588,2871
25/05/2019 15:43:41.592,2855
25/05/2019 15:43:41.596,2863
25/05/2019 15:43:41.600,2943
25/05/2019 15:43:41.604,2927
25/05/2019 15:43:41.608,2895
25/05/2019 15:43:41.612,2859
25/05/2019 15:43:41.616,2919
25/05/2019 15:43:41.620,2907
25/05/2019 15:43:41.624,2879
25/05/2019 15:43:41.628,2855
25/05/2019 15:43:41.632,2923
25/05/2019 15:43:41.636,2907
25/05/2019 15:43:41.640,2855
25/05/2019 15:43:41.644,2827
25/05/2019 15:43:41.648,2895
25/05/2019 15:43:41.652,2915
25/05/2019 15:43:41.656,2871
25/05/2019 15:43:41.660,2823
25/05/2019 15:43:41.664,2839
25/05/2019 15:43:41.668,2883
25/05/2019 15:43:41.672,2847
25/05/2019 15:43:41.676,2815
25/05/2019 15:43:41.680,2823
25/05/2019 15:43:41.684,2879
25/05/2019 15:43:41.688,2839
25/05/2019 15:43:41.692,2803
25/05/2019 15:43:41.696,2795
25/05/2019 15:43:41.700,2887
25/05/2019 15:43:41.704,2875
25/05/2019 15:43:41.708,2855
25/05/2019 15:43:41.712,2827
25/05/2019 15:43:41.716,2903
25/05/2019 15:43:41.720,2891
25/05/2019 15:43:41.724,2871
25/05/2019 15:43:41.728,2855
25/05/2019 15:43:41.732,2915
25/05/2019 15:43:41.736,2911
25/05/2019 15:43:41.740,2867
25/05/2019 15:43:41.744,2819
25/05/2019 15:43:41.748,2855
25/05/2019 15:43:41.752,2863
25/05/2019 15:43:41.756,2823
25/05/2019 15:43:41.760,2795
25/05/2019 15:43:41.764,2839
25/05/2019 15:43:41.768,2895
25/05/2019 15:43:41.772,2863
25/05/2019 15:43:41.776,2827
25/05/2019 15:43:41.780,2843
25/05/2019 15:43:41.784,2907
25/05/2019 15:43:41.788,2867
25/05/2019 15:43:41.792,2811
25/05/2019 15:43:41.796,2791
25/05/2019 15:43:41.800,2867
25/05/2019 15:43:41.804,2871
25/05/2019 15:43:41.808,2879
25/05/2019 15:43:41.812,2843
25/05/2019 15:43:41.816,2879
25/05/2019 15:43:41.820,2843
25/05/2019 15:43:41.824,2795
25/05/2019 15:43:41.828,2763
25/05/2019 15:43:41.832,2839
25/05/2019 15:43:41.836,2855
25/05/2019 15:43:41.840,2815
25/05/2019 15:43:41.844,2775
25/05/2019 15:43:41.848,2839
25/05/2019 15:43:41.852,2879
25/05/2019 15:43:41.856,2851
25/05/2019 15:43:41.860,2807
25/05/2019 15:43:41.864,2795
25/05/2019 15:43:41.868,2739
25/05/2019 15:43:41.872,2615
25/05/2019 15:43:41.876,2535
25/05/2019 15:43:41.880,2575
25/05/2019 15:43:41.884,2671
25/05/2019 15:43:41.888,2723
25/05/2019 15:43:41.892,2731
25/05/2019 15:43:41.896,2771
25/05/2019 15:43:41.900,2855
25/05/2019 15:43:41.904,2823
25/05/2019 15:43:41.908,2823
25/05/2019 15:43:41.912,2855
25/05/2019 15:43:41.916,2943
25/05/2019 15:43:41.920,2927
25/05/2019 15:43:41.924,2891
25/05/2019 15:43:41.928,2847
25/05/2019 15:43:41.932,2903
25/05/2019 15:43:41.936,2891
25/05/2019 15:43:41.940,2871
25/05/2019 15:43:41.944,2815
25/05/2019 15:43:41.948,2855
25/05/2019 15:43:41.952,2867
25/05/2019 15:43:41.956,2831
25/05/2019 15:43:41.960,2787
25/05/2019 15:43:41.964,2823
25/05/2019 15:43:41.968,2867
25/05/2019 15:43:41.972,2859
25/05/2019 15:43:41.976,2795
25/05/2019 15:43:41.980,2827
25/05/2019 15:43:41.984,2859
25/05/2019 15:43:41.988,2799
25/05/2019 15:43:41.992,2735
25/05/2019 15:43:41.996,2739
25/05/2019 15:43:42.000,2859
25/05/2019 15:43:42.004,2855
25/05/2019 15:43:42.008,2807
25/05/2019 15:43:42.012,2727
25/05/2019 15:43:42.016,2755
25/05/2019 15:43:42.020,2739
25/05/2019 15:43:42.024,2755
25/05/2019 15:43:42.028,2795
25/05/2019 15:43:42.032,2871
25/05/2019 15:43:42.036,2843
25/05/2019 15:43:42.040,2803
25/05/2019 15:43:42.044,2815
25/05/2019 15:43:42.048,2887
25/05/2019 15:43:42.052,2919
25/05/2019 15:43:42.056,2855
25/05/2019 15:43:42.060,2751
25/05/2019 15:43:42.064,2727
25/05/2019 15:43:42.068,2787
25/05/2019 15:43:42.072,2715
25/05/2019 15:43:42.076,2639
25/05/2019 15:43:42.080,2679
25/05/2019 15:43:42.084,2783
25/05/2019 15:43:42.088,2779
25/05/2019 15:43:42.092,2723
25/05/2019 15:43:42.096,2751
25/05/2019 15:43:42.100,2823
25/05/2019 15:43:42.104,2835
25/05/2019 15:43:42.108,2843
25/05/2019 15:43:42.112,2847
25/05/2019 15:43:42.116,2931
25/05/2019 15:43:42.120,2947
25/05/2019 15:43:42.124,2935
25/05/2019 15:43:42.128,2887
25/05/2019 15:43:42.132,2771
25/05/2019 15:43:42.136,2431
25/05/2019 15:43:42.140,2299
25/05/2019 15:43:42.144,2339
25/05/2019 15:43:42.148,2527
25/05/2019 15:43:42.152,2651
25/05/2019 15:43:42.156,2727
25/05/2019 15:43:42.160,2759
25/05/2019 15:43:42.164,2847
25/05/2019 15:43:42.168,2899
25/05/2019 15:43:42.172,2879
25/05/2019 15:43:42.176,2859
25/05/2019 15:43:42.180,2895
25/05/2019 15:43:42.184,2943
25/05/2019 15:43:42.188,2919
25/05/2019 15:43:42.192,2883
25/05/2019 15:43:42.196,2879
25/05/2019 15:43:42.200,2927
25/05/2019 15:43:42.204,2895
25/05/2019 15:43:42.208,2859
25/05/2019 15:43:42.212,2855
25/05/2019 15:43:42.216,2943
25/05/2019 15:43:42.220,2943
25/05/2019 15:43:42.224,2895
25/05/2019 15:43:42.228,2783
25/05/2019 15:43:42.232,2823
25/05/2019 15:43:42.236,2823
25/05/2019 15:43:42.240,2815
25/05/2019 15:43:42.244,2795
25/05/2019 15:43:42.248,2799
25/05/2019 15:43:42.252,2715
25/05/2019 15:43:42.256,2611
25/05/2019 15:43:42.260,2539
25/05/2019 15:43:42.264,2595
25/05/2019 15:43:42.268,2703
25/05/2019 15:43:42.272,2871
25/05/2019 15:43:42.276,3159
25/05/2019 15:43:42.280,3299
25/05/2019 15:43:42.284,3187
25/05/2019 15:43:42.288,2963
25/05/2019 15:43:42.292,2815
25/05/2019 15:43:42.296,2779
25/05/2019 15:43:42.300,2819
25/05/2019 15:43:42.304,2735
25/05/2019 15:43:42.308,2531
25/05/2019 15:43:42.312,2375
25/05/2019 15:43:42.316,2467
25/05/2019 15:43:42.320,2551
25/05/2019 15:43:42.324,2603
25/05/2019 15:43:42.328,2643
25/05/2019 15:43:42.332,2771
25/05/2019 15:43:42.336,2807
25/05/2019 15:43:42.340,2763
25/05/2019 15:43:42.344,2671
25/05/2019 15:43:42.348,2695
25/05/2019 15:43:42.352,2715
25/05/2019 15:43:42.356,2735
25/05/2019 15:43:42.360,2743
25/05/2019 15:43:42.364,2819
25/05/2019 15:43:42.368,2859
25/05/2019 15:43:42.372,2847
25/05/2019 15:43:42.376,2787
25/05/2019 15:43:42.380,2771
25/05/2019 15:43:42.384,2811
25/05/2019 15:43:42.388,2711
25/05/2019 15:43:42.392,2611
25/05/2019 15:43:42.396,2571
25/05/2019 15:43:42.400,2687
25/05/2019 15:43:42.404,2803
25/05/2019 15:43:42.408,2847
25/05/2019 15:43:42.412,2863
25/05/2019 15:43:42.416,2935
25/05/2019 15:43:42.420,2919
25/05/2019 15:43:42.424,2875
25/05/2019 15:43:42.428,2847
25/05/2019 15:43:42.432,2939
25/05/2019 15:43:42.436,2923
25/05/2019 15:43:42.440,2791
25/05/2019 15:43:42.444,2599
25/05/2019 15:43:42.448,2615
25/05/2019 15:43:42.452,2635
25/05/2019 15:43:42.456,2615
25/05/2019 15:43:42.460,2639
25/05/2019 15:43:42.464,2683
25/05/2019 15:43:42.468,2695
25/05/2019 15:43:42.472,2703
25/05/2019 15:43:42.476,2735
25/05/2019 15:43:42.480,2843
25/05/2019 15:43:42.484,2935
25/05/2019 15:43:42.488,2927
25/05/2019 15:43:42.492,2891
25/05/2019 15:43:42.496,2903
25/05/2019 15:43:42.500,2923
25/05/2019 15:43:42.504,2855
25/05/2019 15:43:42.508,2879
25/05/2019 15:43:42.512,2907
25/05/2019 15:43:42.516,2987
25/05/2019 15:43:42.520,2923
25/05/2019 15:43:42.524,2831
25/05/2019 15:43:42.528,2735
25/05/2019 15:43:42.532,2775
25/05/2019 15:43:42.536,2747
25/05/2019 15:43:42.540,2735
25/05/2019 15:43:42.544,2731
25/05/2019 15:43:42.548,2819
25/05/2019 15:43:42.552,2803
25/05/2019 15:43:42.556,2715
25/05/2019 15:43:42.560,2639
25/05/2019 15:43:42.564,2691
25/05/2019 15:43:42.568,2687
25/05/2019 15:43:42.572,2607
25/05/2019 15:43:42.576,2567
25/05/2019 15:43:42.580,2647
25/05/2019 15:43:42.584,2731
25/05/2019 15:43:42.588,2731
25/05/2019 15:43:42.592,2751
25/05/2019 15:43:42.596,2751
25/05/2019 15:43:42.600,2779
25/05/2019 15:43:42.604,2707
25/05/2019 15:43:42.608,2635
25/05/2019 15:43:42.612,2631
25/05/2019 15:43:42.616,2719
25/05/2019 15:43:42.620,2687
25/05/2019 15:43:42.624,2687
25/05/2019 15:43:42.628,2707
25/05/2019 15:43:42.632,2827
25/05/2019 15:43:42.636,2799
25/05/2019 15:43:42.640,2747
25/05/2019 15:43:42.644,2695
25/05/2019 15:43:42.648,2783
25/05/2019 15:43:42.652,2763
25/05/2019 15:43:42.656,2671
25/05/2019 15:43:42.660,2567
25/05/2019 15:43:42.664,2643
25/05/2019 15:43:42.668,2675
25/05/2019 15:43:42.672,2683
25/05/2019 15:43:42.676,2679
25/05/2019 15:43:42.680,2779
25/05/2019 15:43:42.684,2827
25/05/2019 15:43:42.688,2711
25/05/2019 15:43:42.692,2631
25/05/2019 15:43:42.696,2711
25/05/2019 15:43:42.700,2811
25/05/2019 15:43:42.704,2751
25/05/2019 15:43:42.708,2671
25/05/2019 15:43:42.712,2687
25/05/2019 15:43:42.716,2791
25/05/2019 15:43:42.720,2751
25/05/2019 15:43:42.724,2707
25/05/2019 15:43:42.728,2719
25/05/2019 15:43:42.732,2843
25/05/2019 15:43:42.736,2807
25/05/2019 15:43:42.740,2731
25/05/2019 15:43:42.744,2663
25/05/2019 15:43:42.748,2751
25/05/2019 15:43:42.752,2683
25/05/2019 15:43:42.756,2591
25/05/2019 15:43:42.760,2551
25/05/2019 15:43:42.764,2675
25/05/2019 15:43:42.768,2707
25/05/2019 15:43:42.772,2723
25/05/2019 15:43:42.776,2719
25/05/2019 15:43:42.780,2803
25/05/2019 15:43:42.784,2819
25/05/2019 15:43:42.788,2755
25/05/2019 15:43:42.792,2699
25/05/2019 15:43:42.796,2739
25/05/2019 15:43:42.800,2799
25/05/2019 15:43:42.804,2751
25/05/2019 15:43:42.808,2719
25/05/2019 15:43:42.812,2739
25/05/2019 15:43:42.816,2783
25/05/2019 15:43:42.820,2683
25/05/2019 15:43:42.824,2595
25/05/2019 15:43:42.828,2503
25/05/2019 15:43:42.832,2583
25/05/2019 15:43:42.836,2487
25/05/2019 15:43:42.840,2411
25/05/2019 15:43:42.844,2439
25/05/2019 15:43:42.848,2603
25/05/2019 15:43:42.852,2615
25/05/2019 15:43:42.856,2595
25/05/2019 15:43:42.860,2607
25/05/2019 15:43:42.864,2735
25/05/2019 15:43:42.868,2763
25/05/2019 15:43:42.872,2751
25/05/2019 15:43:42.876,2715
25/05/2019 15:43:42.880,2759
25/05/2019 15:43:42.884,2751
25/05/2019 15:43:42.888,2735
25/05/2019 15:43:42.892,2671
25/05/2019 15:43:42.896,2703
25/05/2019 15:43:42.900,2747
25/05/2019 15:43:42.904,2707
25/05/2019 15:43:42.908,2683
25/05/2019 15:43:42.912,2719
25/05/2019 15:43:42.916,2763
25/05/2019 15:43:42.920,2723
25/05/2019 15:43:42.924,2703
25/05/2019 15:43:42.928,2703
25/05/2019 15:43:42.932,2771
25/05/2019 15:43:42.936,2743
25/05/2019 15:43:42.940,2711
25/05/2019 15:43:42.944,2683
25/05/2019 15:43:42.948,2759
25/05/2019 15:43:42.952,2747
25/05/2019 15:43:42.956,2723
25/05/2019 15:43:42.960,2675
25/05/2019 15:43:42.964,2719
25/05/2019 15:43:42.968,2711
25/05/2019 15:43:42.972,2699
25/05/2019 15:43:42.976,2655
25/05/2019 15:43:42.980,2707
25/05/2019 15:43:42.984,2711
25/05/2019 15:43:42.988,2675
25/05/2019 15:43:42.992,2639
25/05/2019 15:43:42.996,2651
25/05/2019 15:43:43.000,2643
25/05/2019 15:43:43.004,2599
25/05/2019 15:43:43.008,2551
25/05/2019 15:43:43.012,2547
25/05/2019 15:43:43.016,2599
25/05/2019 15:43:43.020,2587
25/05/2019 15:43:43.024,2571
25/05/2019 15:43:43.028,2571
25/05/2019 15:43:43.032,2587
25/05/2019 15:43:43.036,2567
25/05/2019 15:43:43.040,2507
25/05/2019 15:43:43.044,2419
25/05/2019 15:43:43.048,2495
25/05/2019 15:43:43.052,2567
25/05/2019 15:43:43.056,2615
25/05/2019 15:43:43.060,2715
25/05/2019 15:43:43.064,3007
25/05/2019 15:43:43.068,3239
25/05/2019 15:43:43.072,3215
25/05/2019 15:43:43.076,2979
25/05/2019 15:43:43.080,2787
25/05/2019 15:43:43.084,2619
25/05/2019 15:43:43.088,2571
25/05/2019 15:43:43.092,2559
25/05/2019 15:43:43.096,2579
25/05/2019 15:43:43.100,2615
25/05/2019 15:43:43.104,2615
25/05/2019 15:43:43.108,2607
25/05/2019 15:43:43.112,2687
25/05/2019 15:43:43.116,2787
25/05/2019 15:43:43.120,2763
25/05/2019 15:43:43.124,2707
25/05/2019 15:43:43.128,2687
25/05/2019 15:43:43.132,2735
25/05/2019 15:43:43.136,2687
25/05/2019 15:43:43.140,2631
25/05/2019 15:43:43.144,2607
25/05/2019 15:43:43.148,2687
25/05/2019 15:43:43.152,2663
25/05/2019 15:43:43.156,2619
25/05/2019 15:43:43.160,2571
25/05/2019 15:43:43.164,2639
25/05/2019 15:43:43.168,2623
25/05/2019 15:43:43.172,2607
25/05/2019 15:43:43.176,2587
25/05/2019 15:43:43.180,2687
25/05/2019 15:43:43.184,2711
25/05/2019 15:43:43.188,2667
25/05/2019 15:43:43.192,2543
25/05/2019 15:43:43.196,2599
25/05/2019 15:43:43.200,2675
25/05/2019 15:43:43.204,2659
25/05/2019 15:43:43.208,2627
25/05/2019 15:43:43.212,2675
25/05/2019 15:43:43.216,2763
25/05/2019 15:43:43.220,2731
25/05/2019 15:43:43.224,2675
25/05/2019 15:43:43.228,2667
25/05/2019 15:43:43.232,2727
25/05/2019 15:43:43.236,2679
25/05/2019 15:43:43.240,2623
25/05/2019 15:43:43.244,2591
25/05/2019 15:43:43.248,2683
25/05/2019 15:43:43.252,2647
25/05/2019 15:43:43.256,2627
25/05/2019 15:43:43.260,2595
25/05/2019 15:43:43.264,2699
25/05/2019 15:43:43.268,2699
25/05/2019 15:43:43.272,2647
25/05/2019 15:43:43.276,2579
25/05/2019 15:43:43.280,2643
25/05/2019 15:43:43.284,2631
25/05/2019 15:43:43.288,2555
25/05/2019 15:43:43.292,2463
25/05/2019 15:43:43.296,2455
25/05/2019 15:43:43.300,2427
25/05/2019 15:43:43.304,2415
25/05/2019 15:43:43.308,2427
25/05/2019 15:43:43.312,2535
25/05/2019 15:43:43.316,2663
25/05/2019 15:43:43.320,2671
25/05/2019 15:43:43.324,2647
25/05/2019 15:43:43.328,2663
25/05/2019 15:43:43.332,2723
25/05/2019 15:43:43.336,2639
25/05/2019 15:43:43.340,2559
25/05/2019 15:43:43.344,2551
25/05/2019 15:43:43.348,2655
25/05/2019 15:43:43.352,2655
25/05/2019 15:43:43.356,2651
25/05/2019 15:43:43.360,2635
25/05/2019 15:43:43.364,2719
25/05/2019 15:43:43.368,2735
25/05/2019 15:43:43.372,2735
25/05/2019 15:43:43.376,2715
25/05/2019 15:43:43.380,2991
25/05/2019 15:43:43.384,3099
25/05/2019 15:43:43.388,3023
25/05/2019 15:43:43.392,2899
25/05/2019 15:43:43.396,2863
25/05/2019 15:43:43.400,2811
25/05/2019 15:43:43.404,2759
25/05/2019 15:43:43.408,2695
25/05/2019 15:43:43.412,2695
25/05/2019 15:43:43.416,2687
25/05/2019 15:43:43.420,2607
25/05/2019 15:43:43.424,2535
25/05/2019 15:43:43.428,2531
25/05/2019 15:43:43.432,2563
25/05/2019 15:43:43.436,2511
25/05/2019 15:43:43.440,2483
25/05/2019 15:43:43.444,2479
25/05/2019 15:43:43.448,2543
25/05/2019 15:43:43.452,2507
25/05/2019 15:43:43.456,2471
25/05/2019 15:43:43.460,2487
25/05/2019 15:43:43.464,2635
25/05/2019 15:43:43.468,2635
25/05/2019 15:43:43.472,2539
25/05/2019 15:43:43.476,2443
25/05/2019 15:43:43.480,2495
25/05/2019 15:43:43.484,2515
25/05/2019 15:43:43.488,2535
25/05/2019 15:43:43.492,2579
25/05/2019 15:43:43.496,2659
25/05/2019 15:43:43.500,2655
25/05/2019 15:43:43.504,2587
25/05/2019 15:43:43.508,2507
25/05/2019 15:43:43.512,2471
25/05/2019 15:43:43.516,2455
25/05/2019 15:43:43.520,2419
25/05/2019 15:43:43.524,2411
25/05/2019 15:43:43.528,2459
25/05/2019 15:43:43.532,2527
25/05/2019 15:43:43.536,2519
25/05/2019 15:43:43.540,2355
25/05/2019 15:43:43.544,2091
25/05/2019 15:43:43.548,2103
25/05/2019 15:43:43.552,2163
25/05/2019 15:43:43.556,2251
25/05/2019 15:43:43.560,2331
25/05/2019 15:43:43.564,2459
25/05/2019 15:43:43.568,2507
25/05/2019 15:43:43.572,2483
25/05/2019 15:43:43.576,2479
25/05/2019 15:43:43.580,2563
25/05/2019 15:43:43.584,2503
25/05/2019 15:43:43.588,2483
25/05/2019 15:43:43.592,2519
25/05/2019 15:43:43.596,2635
25/05/2019 15:43:43.600,2695
25/05/2019 15:43:43.604,2703
25/05/2019 15:43:43.608,2683
25/05/2019 15:43:43.612,2699
25/05/2019 15:43:43.616,2723
25/05/2019 15:43:43.620,2711
25/05/2019 15:43:43.624,2699
25/05/2019 15:43:43.628,2735
25/05/2019 15:43:43.632,2783
25/05/2019 15:43:43.636,2755
25/05/2019 15:43:43.640,2719
25/05/2019 15:43:43.644,2715
25/05/2019 15:43:43.648,2727
25/05/2019 15:43:43.652,2647
25/05/2019 15:43:43.656,2623
25/05/2019 15:43:43.660,2627
25/05/2019 15:43:43.664,2703
25/05/2019 15:43:43.668,2695
25/05/2019 15:43:43.672,2663
25/05/2019 15:43:43.676,2631
25/05/2019 15:43:43.680,2703
25/05/2019 15:43:43.684,2707
25/05/2019 15:43:43.688,2683
25/05/2019 15:43:43.692,2635
25/05/2019 15:43:43.696,2679
25/05/2019 15:43:43.700,2675
25/05/2019 15:43:43.704,2631
25/05/2019 15:43:43.708,2603
25/05/2019 15:43:43.712,2671
25/05/2019 15:43:43.716,2695
25/05/2019 15:43:43.720,2643
25/05/2019 15:43:43.724,2599
25/05/2019 15:43:43.728,2635
25/05/2019 15:43:43.732,2679
25/05/2019 15:43:43.736,2635
25/05/2019 15:43:43.740,2599
25/05/2019 15:43:43.744,2603
25/05/2019 15:43:43.748,2679
25/05/2019 15:43:43.752,2651
25/05/2019 15:43:43.756,2615
25/05/2019 15:43:43.760,2607
25/05/2019 15:43:43.764,2679
25/05/2019 15:43:43.768,2635
25/05/2019 15:43:43.772,2587
25/05/2019 15:43:43.776,2535
25/05/2019 15:43:43.780,2619
25/05/2019 15:43:43.784,2599
25/05/2019 15:43:43.788,2563
25/05/2019 15:43:43.792,2527
25/05/2019 15:43:43.796,2607
25/05/2019 15:43:43.800,2599
25/05/2019 15:43:43.804,2539
25/05/2019 15:43:43.808,2491
25/05/2019 15:43:43.812,2579
25/05/2019 15:43:43.816,2607
25/05/2019 15:43:43.820,2535
25/05/2019 15:43:43.824,2431
25/05/2019 15:43:43.828,2383
25/05/2019 15:43:43.832,2371
25/05/2019 15:43:43.836,2299
25/05/2019 15:43:43.840,2111
25/05/2019 15:43:43.844,1971
25/05/2019 15:43:43.848,2287
25/05/2019 15:43:43.852,2667
25/05/2019 15:43:43.856,2955
25/05/2019 15:43:43.860,2955
25/05/2019 15:43:43.864,2915
25/05/2019 15:43:43.868,2775
25/05/2019 15:43:43.872,2667
25/05/2019 15:43:43.876,2603
25/05/2019 15:43:43.880,2687
25/05/2019 15:43:43.884,2679
25/05/2019 15:43:43.888,2631
25/05/2019 15:43:43.892,2567
25/05/2019 15:43:43.896,2647
25/05/2019 15:43:43.900,2651
25/05/2019 15:43:43.904,2611
25/05/2019 15:43:43.908,2559
25/05/2019 15:43:43.912,2631
25/05/2019 15:43:43.916,2655
25/05/2019 15:43:43.920,2619
25/05/2019 15:43:43.924,2567
25/05/2019 15:43:43.928,2615
25/05/2019 15:43:43.932,2659
25/05/2019 15:43:43.936,2615
25/05/2019 15:43:43.940,2571
25/05/2019 15:43:43.944,2747
25/05/2019 15:43:43.948,3035
25/05/2019 15:43:43.952,3027
25/05/2019 15:43:43.956,2955
25/05/2019 15:43:43.960,2939
25/05/2019 15:43:43.964,2971
25/05/2019 15:43:43.968,2835
25/05/2019 15:43:43.972,2695
25/05/2019 15:43:43.976,2567
25/05/2019 15:43:43.980,2587
25/05/2019 15:43:43.984,2511
25/05/2019 15:43:43.988,2431
25/05/2019 15:43:43.992,2367
25/05/2019 15:43:43.996,2439
25/05/2019 15:43:44.000,2415
25/05/2019 15:43:44.004,2355
25/05/2019 15:43:44.008,2319
25/05/2019 15:43:44.012,2423
25/05/2019 15:43:44.016,2467
25/05/2019 15:43:44.020,2419
25/05/2019 15:43:44.024,2343
25/05/2019 15:43:44.028,2387
25/05/2019 15:43:44.032,2447
25/05/2019 15:43:44.036,2407
25/05/2019 15:43:44.040,2367
25/05/2019 15:43:44.044,2411
25/05/2019 15:43:44.048,2491
25/05/2019 15:43:44.052,2455
25/05/2019 15:43:44.056,2423
25/05/2019 15:43:44.060,2451
25/05/2019 15:43:44.064,2567
25/05/2019 15:43:44.068,2539
25/05/2019 15:43:44.072,2511
25/05/2019 15:43:44.076,2495
25/05/2019 15:43:44.080,2603
25/05/2019 15:43:44.084,2571
25/05/2019 15:43:44.088,2511
25/05/2019 15:43:44.092,2459
25/05/2019 15:43:44.096,2563
25/05/2019 15:43:44.100,2547
25/05/2019 15:43:44.104,2483
25/05/2019 15:43:44.108,2395
25/05/2019 15:43:44.112,2471
25/05/2019 15:43:44.116,2499
25/05/2019 15:43:44.120,2451
25/05/2019 15:43:44.124,2399
25/05/2019 15:43:44.128,2479
25/05/2019 15:43:44.132,2523
25/05/2019 15:43:44.136,2475
25/05/2019 15:43:44.140,2431
25/05/2019 15:43:44.144,2511
25/05/2019 15:43:44.148,2635
25/05/2019 15:43:44.152,2607
25/05/2019 15:43:44.156,2547
25/05/2019 15:43:44.160,2503
25/05/2019 15:43:44.164,2459
25/05/2019 15:43:44.168,2435
25/05/2019 15:43:44.172,2475
25/05/2019 15:43:44.176,2507
25/05/2019 15:43:44.180,2627
25/05/2019 15:43:44.184,2619
25/05/2019 15:43:44.188,2643
25/05/2019 15:43:44.192,2619
25/05/2019 15:43:44.196,2683
25/05/2019 15:43:44.200,2655
25/05/2019 15:43:44.204,2635
25/05/2019 15:43:44.208,2595
25/05/2019 15:43:44.212,2659
25/05/2019 15:43:44.216,2639
25/05/2019 15:43:44.220,2595
25/05/2019 15:43:44.224,2623
25/05/2019 15:43:44.228,2723
25/05/2019 15:43:44.232,2731
25/05/2019 15:43:44.236,2631
25/05/2019 15:43:44.240,2543
25/05/2019 15:43:44.244,2567
25/05/2019 15:43:44.248,2635
25/05/2019 15:43:44.252,2595
25/05/2019 15:43:44.256,2607
25/05/2019 15:43:44.260,2671
25/05/2019 15:43:44.264,2775
25/05/2019 15:43:44.268,2855
25/05/2019 15:43:44.272,2863
25/05/2019 15:43:44.276,2927
25/05/2019 15:43:44.280,3163
25/05/2019 15:43:44.284,3147
25/05/2019 15:43:44.288,3003
25/05/2019 15:43:44.292,2807
25/05/2019 15:43:44.296,2759
25/05/2019 15:43:44.300,2643
25/05/2019 15:43:44.304,2511
25/05/2019 15:43:44.308,2503
25/05/2019 15:43:44.312,2587
25/05/2019 15:43:44.316,2447
25/05/2019 15:43:44.320,2263
25/05/2019 15:43:44.324,2223
25/05/2019 15:43:44.328,2403
25/05/2019 15:43:44.332,2491
25/05/2019 15:43:44.336,2395
25/05/2019 15:43:44.340,2307
25/05/2019 15:43:44.344,2383
25/05/2019 15:43:44.348,2463
25/05/2019 15:43:44.352,2427
25/05/2019 15:43:44.356,2375
25/05/2019 15:43:44.360,2459
25/05/2019 15:43:44.364,2603
25/05/2019 15:43:44.368,2643
25/05/2019 15:43:44.372,2635
25/05/2019 15:43:44.376,2591
25/05/2019 15:43:44.380,2607
25/05/2019 15:43:44.384,2547
25/05/2019 15:43:44.388,2499
25/05/2019 15:43:44.392,2411
25/05/2019 15:43:44.396,2375
25/05/2019 15:43:44.400,2347
25/05/2019 15:43:44.404,2395
25/05/2019 15:43:44.408,2387
25/05/2019 15:43:44.412,2475
25/05/2019 15:43:44.416,2467
25/05/2019 15:43:44.420,2407
25/05/2019 15:43:44.424,2435
25/05/2019 15:43:44.428,2543
25/05/2019 15:43:44.432,2575
25/05/2019 15:43:44.436,2511
25/05/2019 15:43:44.440,2427
25/05/2019 15:43:44.444,2519
25/05/2019 15:43:44.448,2591
25/05/2019 15:43:44.452,2527
25/05/2019 15:43:44.456,2391
25/05/2019 15:43:44.460,2419
25/05/2019 15:43:44.464,2587
25/05/2019 15:43:44.468,2579
25/05/2019 15:43:44.472,2487
25/05/2019 15:43:44.476,2395
25/05/2019 15:43:44.480,2411
25/05/2019 15:43:44.484,2399
25/05/2019 15:43:44.488,2419
25/05/2019 15:43:44.492,2439
25/05/2019 15:43:44.496,2463
25/05/2019 15:43:44.500,2447
25/05/2019 15:43:44.504,2471
25/05/2019 15:43:44.508,2447
25/05/2019 15:43:44.512,2491
25/05/2019 15:43:44.516,2447
25/05/2019 15:43:44.520,2407
25/05/2019 15:43:44.524,2463
25/05/2019 15:43:44.528,2659
25/05/2019 15:43:44.532,2679
25/05/2019 15:43:44.536,2543
25/05/2019 15:43:44.540,2407
25/05/2019 15:43:44.544,2451
25/05/2019 15:43:44.548,2531
25/05/2019 15:43:44.552,2511
25/05/2019 15:43:44.556,2351
25/05/2019 15:43:44.560,2151
25/05/2019 15:43:44.564,2067
25/05/2019 15:43:44.568,2139
25/05/2019 15:43:44.572,2183
25/05/2019 15:43:44.576,2247
25/05/2019 15:43:44.580,2395
25/05/2019 15:43:44.584,2483
25/05/2019 15:43:44.588,2651
25/05/2019 15:43:44.592,2907
25/05/2019 15:43:44.596,3043
25/05/2019 15:43:44.600,2843
25/05/2019 15:43:44.604,2607
25/05/2019 15:43:44.608,2455
25/05/2019 15:43:44.612,2467
25/05/2019 15:43:44.616,2475
25/05/2019 15:43:44.620,2459
25/05/2019 15:43:44.624,2375
25/05/2019 15:43:44.628,2395
25/05/2019 15:43:44.632,2443
25/05/2019 15:43:44.636,2443
25/05/2019 15:43:44.640,2355
25/05/2019 15:43:44.644,2391
25/05/2019 15:43:44.648,2479
25/05/2019 15:43:44.652,2547
25/05/2019 15:43:44.656,2479
25/05/2019 15:43:44.660,2435
25/05/2019 15:43:44.664,2543
25/05/2019 15:43:44.668,2503
25/05/2019 15:43:44.672,2379
25/05/2019 15:43:44.676,2295
25/05/2019 15:43:44.680,2463
25/05/2019 15:43:44.684,2543
25/05/2019 15:43:44.688,2447
25/05/2019 15:43:44.692,2403
25/05/2019 15:43:44.696,2547
25/05/2019 15:43:44.700,2487
25/05/2019 15:43:44.704,2375
25/05/2019 15:43:44.708,2255
25/05/2019 15:43:44.712,2479
25/05/2019 15:43:44.716,2671
25/05/2019 15:43:44.720,2611
25/05/2019 15:43:44.724,2351
25/05/2019 15:43:44.728,2359
25/05/2019 15:43:44.732,2583
25/05/2019 15:43:44.736,2551
25/05/2019 15:43:44.740,2375
25/05/2019 15:43:44.744,2451
25/05/2019 15:43:44.748,2487
25/05/2019 15:43:44.752,2431
25/05/2019 15:43:44.756,2335
25/05/2019 15:43:44.760,2443
25/05/2019 15:43:44.764,2619
25/05/2019 15:43:44.768,2399
25/05/2019 15:43:44.772,2295
25/05/2019 15:43:44.776,2535
25/05/2019 15:43:44.780,2651
25/05/2019 15:43:44.784,2535
25/05/2019 15:43:44.788,2359
25/05/2019 15:43:44.792,2351
25/05/2019 15:43:44.796,2539
25/05/2019 15:43:44.800,2583
25/05/2019 15:43:44.804,2535
25/05/2019 15:43:44.808,2443
25/05/2019 15:43:44.812,2427
25/05/2019 15:43:44.816,2395
25/05/2019 15:43:44.820,2451
25/05/2019 15:43:44.824,2407
25/05/2019 15:43:44.828,2547
25/05/2019 15:43:44.832,2695
25/05/2019 15:43:44.836,2607
25/05/2019 15:43:44.840,2427
25/05/2019 15:43:44.844,2483
25/05/2019 15:43:44.848,2579
25/05/2019 15:43:44.852,2591
25/05/2019 15:43:44.856,2515
25/05/2019 15:43:44.860,2483
25/05/2019 15:43:44.864,2451
25/05/2019 15:43:44.868,2383
25/05/2019 15:43:44.872,2359
25/05/2019 15:43:44.876,2503
25/05/2019 15:43:44.880,2707
25/05/2019 15:43:44.884,2651
25/05/2019 15:43:44.888,2527
25/05/2019 15:43:44.892,2447
25/05/2019 15:43:44.896,2551
25/05/2019 15:43:44.900,2555
25/05/2019 15:43:44.904,2503
25/05/2019 15:43:44.908,2407
25/05/2019 15:43:44.912,2483
25/05/2019 15:43:44.916,2603
25/05/2019 15:43:44.920,2567
25/05/2019 15:43:44.924,2395
25/05/2019 15:43:44.928,2515
25/05/2019 15:43:44.932,2559
25/05/2019 15:43:44.936,2535
25/05/2019 15:43:44.940,2375
25/05/2019 15:43:44.944,2255
25/05/2019 15:43:44.948,2315
25/05/2019 15:43:44.952,2463
25/05/2019 15:43:44.956,2463
25/05/2019 15:43:44.960,2479
25/05/2019 15:43:44.964,2499
25/05/2019 15:43:44.968,2419
25/05/2019 15:43:44.972,2243
25/05/2019 15:43:44.976,2247
25/05/2019 15:43:44.980,2539
25/05/2019 15:43:44.984,2551
25/05/2019 15:43:44.988,2435
25/05/2019 15:43:44.992,2443
25/05/2019 15:43:44.996,2547
25/05/2019 15:43:45.000,2523
25/05/2019 15:43:45.004,2451
25/05/2019 15:43:45.008,2603
25/05/2019 15:43:45.012,2879
25/05/2019 15:43:45.016,2915
25/05/2019 15:43:45.020,2807
25/05/2019 15:43:45.024,2655
25/05/2019 15:43:45.028,2527
25/05/2019 15:43:45.032,2263
25/05/2019 15:43:45.036,2131
25/05/2019 15:43:45.040,2003
25/05/2019 15:43:45.044,1995
25/05/2019 15:43:45.048,2055
25/05/2019 15:43:45.052,1983
25/05/2019 15:43:45.056,1823
25/05/2019 15:43:45.060,2039
25/05/2019 15:43:45.064,2455
25/05/2019 15:43:45.068,2543
25/05/2019 15:43:45.072,2443
25/05/2019 15:43:45.076,2483
25/05/2019 15:43:45.080,2639
25/05/2019 15:43:45.084,2595
25/05/2019 15:43:45.088,2451
25/05/2019 15:43:45.092,2467
25/05/2019 15:43:45.096,2643
25/05/2019 15:43:45.100,2527
25/05/2019 15:43:45.104,2415
25/05/2019 15:43:45.108,2435
25/05/2019 15:43:45.112,2555
25/05/2019 15:43:45.116,2507
25/05/2019 15:43:45.120,2427
25/05/2019 15:43:45.124,2351
25/05/2019 15:43:45.128,2551
25/05/2019 15:43:45.132,2635
25/05/2019 15:43:45.136,2559
25/05/2019 15:43:45.140,2383
25/05/2019 15:43:45.144,2495
25/05/2019 15:43:45.148,2579
25/05/2019 15:43:45.152,2555
25/05/2019 15:43:45.156,2463
25/05/2019 15:43:45.160,2475
25/05/2019 15:43:45.164,2559
25/05/2019 15:43:45.168,2491
25/05/2019 15:43:45.172,2351
25/05/2019 15:43:45.176,2391
25/05/2019 15:43:45.180,2463
25/05/2019 15:43:45.184,2339
25/05/2019 15:43:45.188,2203
25/05/2019 15:43:45.192,2215
25/05/2019 15:43:45.196,2371
25/05/2019 15:43:45.200,2391
25/05/2019 15:43:45.204,2383
25/05/2019 15:43:45.208,2415
25/05/2019 15:43:45.212,2635
25/05/2019 15:43:45.216,2683
25/05/2019 15:43:45.220,2659
25/05/2019 15:43:45.224,2663
25/05/2019 15:43:45.228,2791
25/05/2019 15:43:45.232,2691
25/05/2019 15:43:45.236,2451
25/05/2019 15:43:45.240,2219
25/05/2019 15:43:45.244,2335
25/05/2019 15:43:45.248,2035
25/05/2019 15:43:45.252,1631
25/05/2019 15:43:45.256,1607
25/05/2019 15:43:45.260,1695
25/05/2019 15:43:45.264,1775
25/05/2019 15:43:45.268,1899
25/05/2019 15:43:45.272,2079
25/05/2019 15:43:45.276,2299
25/05/2019 15:43:45.280,2591
25/05/2019 15:43:45.284,2711
25/05/2019 15:43:45.288,2703
25/05/2019 15:43:45.292,2655
25/05/2019 15:43:45.296,2667
25/05/2019 15:43:45.300,2503
25/05/2019 15:43:45.304,2371
25/05/2019 15:43:45.308,2411
25/05/2019 15:43:45.312,2599
25/05/2019 15:43:45.316,2663
25/05/2019 15:43:45.320,2379
25/05/2019 15:43:45.324,2183
25/05/2019 15:43:45.328,2219
25/05/2019 15:43:45.332,2203
25/05/2019 15:43:45.336,2223
25/05/2019 15:43:45.340,2179
25/05/2019 15:43:45.344,2295
25/05/2019 15:43:45.348,2355
25/05/2019 15:43:45.352,2283
25/05/2019 15:43:45.356,2107
25/05/2019 15:43:45.360,2231
25/05/2019 15:43:45.364,2371
25/05/2019 15:43:45.368,2399
25/05/2019 15:43:45.372,2347
25/05/2019 15:43:45.376,2455
25/05/2019 15:43:45.380,2571
25/05/2019 15:43:45.384,2519
25/05/2019 15:43:45.388,2447
25/05/2019 15:43:45.392,2483
25/05/2019 15:43:45.396,2587
25/05/2019 15:43:45.400,2543
25/05/2019 15:43:45.404,2479
25/05/2019 15:43:45.408,2495
25/05/2019 15:43:45.412,2623
25/05/2019 15:43:45.416,2591
25/05/2019 15:43:45.420,2491
25/05/2019 15:43:45.424,2443
25/05/2019 15:43:45.428,2571
25/05/2019 15:43:45.432,2587
25/05/2019 15:43:45.436,2547
25/05/2019 15:43:45.440,2503
25/05/2019 15:43:45.444,2647
25/05/2019 15:43:45.448,2643
25/05/2019 15:43:45.452,2551
25/05/2019 15:43:45.456,2431
25/05/2019 15:43:45.460,2515
25/05/2019 15:43:45.464,2555
25/05/2019 15:43:45.468,2507
25/05/2019 15:43:45.472,2435
25/05/2019 15:43:45.476,2499
25/05/2019 15:43:45.480,2555
25/05/2019 15:43:45.484,2507
25/05/2019 15:43:45.488,2435
25/05/2019 15:43:45.492,2275
25/05/2019 15:43:45.496,2271
25/05/2019 15:43:45.500,2295
25/05/2019 15:43:45.504,2323
25/05/2019 15:43:45.508,2407
25/05/2019 15:43:45.512,2551
25/05/2019 15:43:45.516,2567
25/05/2019 15:43:45.520,2487
25/05/2019 15:43:45.524,2431
25/05/2019 15:43:45.528,2543
25/05/2019 15:43:45.532,2551
25/05/2019 15:43:45.536,2523
25/05/2019 15:43:45.540,2495
25/05/2019 15:43:45.544,2591
25/05/2019 15:43:45.548,2579
25/05/2019 15:43:45.552,2491
25/05/2019 15:43:45.556,2403
25/05/2019 15:43:45.560,2503
25/05/2019 15:43:45.564,2535
25/05/2019 15:43:45.568,2499
25/05/2019 15:43:45.572,2431
25/05/2019 15:43:45.576,2515
25/05/2019 15:43:45.580,2575
25/05/2019 15:43:45.584,2539
25/05/2019 15:43:45.588,2463
25/05/2019 15:43:45.592,2515
25/05/2019 15:43:45.596,2603
25/05/2019 15:43:45.600,2527
25/05/2019 15:43:45.604,2443
25/05/2019 15:43:45.608,2439
25/05/2019 15:43:45.612,2523
25/05/2019 15:43:45.616,2487
25/05/2019 15:43:45.620,2415
25/05/2019 15:43:45.624,2391
25/05/2019 15:43:45.628,2499
25/05/2019 15:43:45.632,2483
25/05/2019 15:43:45.636,2407
25/05/2019 15:43:45.640,2331
25/05/2019 15:43:45.644,2139
25/05/2019 15:43:45.648,2007
25/05/2019 15:43:45.652,2003
25/05/2019 15:43:45.656,2047
25/05/2019 15:43:45.660,2263
25/05/2019 15:43:45.664,2379
25/05/2019 15:43:45.668,2395
25/05/2019 15:43:45.672,2375
25/05/2019 15:43:45.676,2491
25/05/2019 15:43:45.680,2567
25/05/2019 15:43:45.684,2551
25/05/2019 15:43:45.688,2483
25/05/2019 15:43:45.692,2539
25/05/2019 15:43:45.696,2603
25/05/2019 15:43:45.700,2543
25/05/2019 15:43:45.704,2455
25/05/2019 15:43:45.708,2455
25/05/2019 15:43:45.712,2559
25/05/2019 15:43:45.716,2539
25/05/2019 15:43:45.720,2475
25/05/2019 15:43:45.724,2439
25/05/2019 15:43:45.728,2531
25/05/2019 15:43:45.732,2499
25/05/2019 15:43:45.736,2411
25/05/2019 15:43:45.740,2355
25/05/2019 15:43:45.744,2451
25/05/2019 15:43:45.748,2443
25/05/2019 15:43:45.752,2411
25/05/2019 15:43:45.756,2371
25/05/2019 15:43:45.760,2479
25/05/2019 15:43:45.764,2515
25/05/2019 15:43:45.768,2439
25/05/2019 15:43:45.772,2295
25/05/2019 15:43:45.776,2363
25/05/2019 15:43:45.780,2411
25/05/2019 15:43:45.784,2387
25/05/2019 15:43:45.788,2335
25/05/2019 15:43:45.792,2407
25/05/2019 15:43:45.796,2475
25/05/2019 15:43:45.800,2443
25/05/2019 15:43:45.804,2375
25/05/2019 15:43:45.808,2391
25/05/2019 15:43:45.812,2507
25/05/2019 15:43:45.816,2495
25/05/2019 15:43:45.820,2439
25/05/2019 15:43:45.824,2423
25/05/2019 15:43:45.828,2507
25/05/2019 15:43:45.832,2491
25/05/2019 15:43:45.836,2427
25/05/2019 15:43:45.840,2375
25/05/2019 15:43:45.844,2467
25/05/2019 15:43:45.848,2439
25/05/2019 15:43:45.852,2367
25/05/2019 15:43:45.856,2315
25/05/2019 15:43:45.860,2419
25/05/2019 15:43:45.864,2427
25/05/2019 15:43:45.868,2379
25/05/2019 15:43:45.872,2315
25/05/2019 15:43:45.876,2403
25/05/2019 15:43:45.880,2431
25/05/2019 15:43:45.884,2387
25/05/2019 15:43:45.888,2311
25/05/2019 15:43:45.892,2375
25/05/2019 15:43:45.896,2439
25/05/2019 15:43:45.900,2411
25/05/2019 15:43:45.904,2339
25/05/2019 15:43:45.908,2343
25/05/2019 15:43:45.912,2363
25/05/2019 15:43:45.916,2231
25/05/2019 15:43:45.920,2083
25/05/2019 15:43:45.924,2031
25/05/2019 15:43:45.928,2127
25/05/2019 15:43:45.932,2159
25/05/2019 15:43:45.936,2263
25/05/2019 15:43:45.940,2519
25/05/2019 15:43:45.944,2935
25/05/2019 15:43:45.948,2975
25/05/2019 15:43:45.952,2783
25/05/2019 15:43:45.956,2559
25/05/2019 15:43:45.960,2523
25/05/2019 15:43:45.964,2447
25/05/2019 15:43:45.968,2359
25/05/2019 15:43:45.972,2275
25/05/2019 15:43:45.976,2375
25/05/2019 15:43:45.980,2387
25/05/2019 15:43:45.984,2347
25/05/2019 15:43:45.988,2299
25/05/2019 15:43:45.992,2375
25/05/2019 15:43:45.996,2431
25/05/2019 15:43:46.000,2399
25/05/2019 15:43:46.004,2323
25/05/2019 15:43:46.008,2355
25/05/2019 15:43:46.012,2431
25/05/2019 15:43:46.016,2423
25/05/2019 15:43:46.020,2379
25/05/2019 15:43:46.024,2391
25/05/2019 15:43:46.028,2475
25/05/2019 15:43:46.032,2443
25/05/2019 15:43:46.036,2387
25/05/2019 15:43:46.040,2347
25/05/2019 15:43:46.044,2439
25/05/2019 15:43:46.048,2443
25/05/2019 15:43:46.052,2391
25/05/2019 15:43:46.056,2331
25/05/2019 15:43:46.060,2427
25/05/2019 15:43:46.064,2451
25/05/2019 15:43:46.068,2407
25/05/2019 15:43:46.072,2343
25/05/2019 15:43:46.076,2415
25/05/2019 15:43:46.080,2447
25/05/2019 15:43:46.084,2403
25/05/2019 15:43:46.088,2335
25/05/2019 15:43:46.092,2375
25/05/2019 15:43:46.096,2423
25/05/2019 15:43:46.100,2387
25/05/2019 15:43:46.104,2319
25/05/2019 15:43:46.108,2359
25/05/2019 15:43:46.112,2431
25/05/2019 15:43:46.116,2395
25/05/2019 15:43:46.120,2327
25/05/2019 15:43:46.124,2343
25/05/2019 15:43:46.128,2443
25/05/2019 15:43:46.132,2419
25/05/2019 15:43:46.136,2347
25/05/2019 15:43:46.140,2323
25/05/2019 15:43:46.144,2419
25/05/2019 15:43:46.148,2411
25/05/2019 15:43:46.152,2355
25/05/2019 15:43:46.156,2323
25/05/2019 15:43:46.160,2427
25/05/2019 15:43:46.164,2439
25/05/2019 15:43:46.168,2391
25/05/2019 15:43:46.172,2331
25/05/2019 15:43:46.176,2419
25/05/2019 15:43:46.180,2451
25/05/2019 15:43:46.184,2395
25/05/2019 15:43:46.188,2319
25/05/2019 15:43:46.192,2395
25/05/2019 15:43:46.196,2439
25/05/2019 15:43:46.200,2395
25/05/2019 15:43:46.204,2335
25/05/2019 15:43:46.208,2391
25/05/2019 15:43:46.212,2459
25/05/2019 15:43:46.216,2427
25/05/2019 15:43:46.220,2355
25/05/2019 15:43:46.224,2375
25/05/2019 15:43:46.228,2459
25/05/2019 15:43:46.232,2427
25/05/2019 15:43:46.236,2355
25/05/2019 15:43:46.240,2335
25/05/2019 15:43:46.244,2423
25/05/2019 15:43:46.248,2403
25/05/2019 15:43:46.252,2351
25/05/2019 15:43:46.256,2311
25/05/2019 15:43:46.260,2395
25/05/2019 15:43:46.264,2403
25/05/2019 15:43:46.268,2359
25/05/2019 15:43:46.272,2299
25/05/2019 15:43:46.276,2407
25/05/2019 15:43:46.280,2435
25/05/2019 15:43:46.284,2411
25/05/2019 15:43:46.288,2339
25/05/2019 15:43:46.292,2399
25/05/2019 15:43:46.296,2415
25/05/2019 15:43:46.300,2363
25/05/2019 15:43:46.304,2319
25/05/2019 15:43:46.308,2395
25/05/2019 15:43:46.312,2451
25/05/2019 15:43:46.316,2403
25/05/2019 15:43:46.320,2343
25/05/2019 15:43:46.324,2387
25/05/2019 15:43:46.328,2519
25/05/2019 15:43:46.332,2523
25/05/2019 15:43:46.336,2463
25/05/2019 15:43:46.340,2455
25/05/2019 15:43:46.344,2527
25/05/2019 15:43:46.348,2471
25/05/2019 15:43:46.352,2379
25/05/2019 15:43:46.356,2335
25/05/2019 15:43:46.360,2419
25/05/2019 15:43:46.364,2399
25/05/2019 15:43:46.368,2343
25/05/2019 15:43:46.372,2287
25/05/2019 15:43:46.376,2387
25/05/2019 15:43:46.380,2395
25/05/2019 15:43:46.384,2351
25/05/2019 15:43:46.388,2291
25/05/2019 15:43:46.392,2415
25/05/2019 15:43:46.396,2491
25/05/2019 15:43:46.400,2463
25/05/2019 15:43:46.404,2375
25/05/2019 15:43:46.408,2447
25/05/2019 15:43:46.412,2527
25/05/2019 15:43:46.416,2463
25/05/2019 15:43:46.420,2347
25/05/2019 15:43:46.424,2339
25/05/2019 15:43:46.428,2387
25/05/2019 15:43:46.432,2375
25/05/2019 15:43:46.436,2335
25/05/2019 15:43:46.440,2375
25/05/2019 15:43:46.444,2523
25/05/2019 15:43:46.448,2571
25/05/2019 15:43:46.452,2531
25/05/2019 15:43:46.456,2459
25/05/2019 15:43:46.460,2499
25/05/2019 15:43:46.464,2439
25/05/2019 15:43:46.468,2335
25/05/2019 15:43:46.472,2259
25/05/2019 15:43:46.476,2351
25/05/2019 15:43:46.480,2355
25/05/2019 15:43:46.484,2303
25/05/2019 15:43:46.488,2235
25/05/2019 15:43:46.492,2315
25/05/2019 15:43:46.496,2319
25/05/2019 15:43:46.500,2259
25/05/2019 15:43:46.504,2187
25/05/2019 15:43:46.508,2315
25/05/2019 15:43:46.512,2415
25/05/2019 15:43:46.516,2367
25/05/2019 15:43:46.520,2271
25/05/2019 15:43:46.524,2275
25/05/2019 15:43:46.528,2299
25/05/2019 15:43:46.532,2255
25/05/2019 15:43:46.536,2187
25/05/2019 15:43:46.540,2215
25/05/2019 15:43:46.544,2331
25/05/2019 15:43:46.548,2319
25/05/2019 15:43:46.552,2283
25/05/2019 15:43:46.556,2319
25/05/2019 15:43:46.560,2447
25/05/2019 15:43:46.564,2443
25/05/2019 15:43:46.568,2379
25/05/2019 15:43:46.572,2343
25/05/2019 15:43:46.576,2495
25/05/2019 15:43:46.580,2519
25/05/2019 15:43:46.584,2443
25/05/2019 15:43:46.588,2303
25/05/2019 15:43:46.592,2291
25/05/2019 15:43:46.596,2191
25/05/2019 15:43:46.600,2035
25/05/2019 15:43:46.604,1915
25/05/2019 15:43:46.608,1859
25/05/2019 15:43:46.612,1931
25/05/2019 15:43:46.616,2135
25/05/2019 15:43:46.620,2447
25/05/2019 15:43:46.624,2815
25/05/2019 15:43:46.628,2903
25/05/2019 15:43:46.632,2731
25/05/2019 15:43:46.636,2511
25/05/2019 15:43:46.640,2431
25/05/2019 15:43:46.644,2463
25/05/2019 15:43:46.648,2431
25/05/2019 15:43:46.652,2351
25/05/2019 15:43:46.656,2339
25/05/2019 15:43:46.660,2451
25/05/2019 15:43:46.664,2439
25/05/2019 15:43:46.668,2363
25/05/2019 15:43:46.672,2311
25/05/2019 15:43:46.676,2371
25/05/2019 15:43:46.680,2147
25/05/2019 15:43:46.684,2047
25/05/2019 15:43:46.688,2071
25/05/2019 15:43:46.692,2259
25/05/2019 15:43:46.696,2327
25/05/2019 15:43:46.700,2267
25/05/2019 15:43:46.704,2195
25/05/2019 15:43:46.708,2315
25/05/2019 15:43:46.712,2383
25/05/2019 15:43:46.716,2359
25/05/2019 15:43:46.720,2303
25/05/2019 15:43:46.724,2371
25/05/2019 15:43:46.728,2435
25/05/2019 15:43:46.732,2391
25/05/2019 15:43:46.736,2331
25/05/2019 15:43:46.740,2367
25/05/2019 15:43:46.744,2431
25/05/2019 15:43:46.748,2383
25/05/2019 15:43:46.752,2299
25/05/2019 15:43:46.756,2283
25/05/2019 15:43:46.760,2371
25/05/2019 15:43:46.764,2359
25/05/2019 15:43:46.768,2311
25/05/2019 15:43:46.772,2283
25/05/2019 15:43:46.776,2367
25/05/2019 15:43:46.780,2347
25/05/2019 15:43:46.784,2283
25/05/2019 15:43:46.788,2231
25/05/2019 15:43:46.792,2343
25/05/2019 15:43:46.796,2355
25/05/2019 15:43:46.800,2323
25/05/2019 15:43:46.804,2263
25/05/2019 15:43:46.808,2367
25/05/2019 15:43:46.812,2367
25/05/2019 15:43:46.816,2307
25/05/2019 15:43:46.820,2239
25/05/2019 15:43:46.824,2367
25/05/2019 15:43:46.828,2571
25/05/2019 15:43:46.832,2575
25/05/2019 15:43:46.836,2471
25/05/2019 15:43:46.840,2503
25/05/2019 15:43:46.844,2567
25/05/2019 15:43:46.848,2487
25/05/2019 15:43:46.852,2371
25/05/2019 15:43:46.856,2343
25/05/2019 15:43:46.860,2399
25/05/2019 15:43:46.864,2335
25/05/2019 15:43:46.868,2255
25/05/2019 15:43:46.872,2235
25/05/2019 15:43:46.876,2347
25/05/2019 15:43:46.880,2339
25/05/2019 15:43:46.884,2291
25/05/2019 15:43:46.888,2243
25/05/2019 15:43:46.892,2347
25/05/2019 15:43:46.896,2351
25/05/2019 15:43:46.900,2323
25/05/2019 15:43:46.904,2279
25/05/2019 15:43:46.908,2375
25/05/2019 15:43:46.912,2383
25/05/2019 15:43:46.916,2339
25/05/2019 15:43:46.920,2271
25/05/2019 15:43:46.924,2359
25/05/2019 15:43:46.928,2399
25/05/2019 15:43:46.932,2343
25/05/2019 15:43:46.936,2263
25/05/2019 15:43:46.940,2351
25/05/2019 15:43:46.944,2431
25/05/2019 15:43:46.948,2379
25/05/2019 15:43:46.952,2271
25/05/2019 15:43:46.956,2275
25/05/2019 15:43:46.960,2375
25/05/2019 15:43:46.964,2339
25/05/2019 15:43:46.968,2259
25/05/2019 15:43:46.972,2251
25/05/2019 15:43:46.976,2351
25/05/2019 15:43:46.980,2319
25/05/2019 15:43:46.984,2239
25/05/2019 15:43:46.988,2191
25/05/2019 15:43:46.992,2303
25/05/2019 15:43:46.996,2311
25/05/2019 15:43:47.000,2255
25/05/2019 15:43:47.004,2175
25/05/2019 15:43:47.008,2267
25/05/2019 15:43:47.012,2295
25/05/2019 15:43:47.016,2267
25/05/2019 15:43:47.020,2211
25/05/2019 15:43:47.024,2311
25/05/2019 15:43:47.028,2351
25/05/2019 15:43:47.032,2303
25/05/2019 15:43:47.036,2231
25/05/2019 15:43:47.040,2295
25/05/2019 15:43:47.044,2347
25/05/2019 15:43:47.048,2287
25/05/2019 15:43:47.052,2215
25/05/2019 15:43:47.056,2271
25/05/2019 15:43:47.060,2387
25/05/2019 15:43:47.064,2355
25/05/2019 15:43:47.068,2283
25/05/2019 15:43:47.072,2279
25/05/2019 15:43:47.076,2399
25/05/2019 15:43:47.080,2375
25/05/2019 15:43:47.084,2311
25/05/2019 15:43:47.088,2287
25/05/2019 15:43:47.092,2411
25/05/2019 15:43:47.096,2399
25/05/2019 15:43:47.100,2335
25/05/2019 15:43:47.104,2267
25/05/2019 15:43:47.108,2367
25/05/2019 15:43:47.112,2359
25/05/2019 15:43:47.116,2299
25/05/2019 15:43:47.120,2231
25/05/2019 15:43:47.124,2339
25/05/2019 15:43:47.128,2371
25/05/2019 15:43:47.132,2331
25/05/2019 15:43:47.136,2263
25/05/2019 15:43:47.140,2351
25/05/2019 15:43:47.144,2427
25/05/2019 15:43:47.148,2375
25/05/2019 15:43:47.152,2271
25/05/2019 15:43:47.156,2287
25/05/2019 15:43:47.160,2359
25/05/2019 15:43:47.164,2327
25/05/2019 15:43:47.168,2259
25/05/2019 15:43:47.172,2263
25/05/2019 15:43:47.176,2359
25/05/2019 15:43:47.180,2371
25/05/2019 15:43:47.184,2447
25/05/2019 15:43:47.188,2463
25/05/2019 15:43:47.192,2539
25/05/2019 15:43:47.196,2463
25/05/2019 15:43:47.200,2347
25/05/2019 15:43:47.204,2271
25/05/2019 15:43:47.208,2363
25/05/2019 15:43:47.212,2339
25/05/2019 15:43:47.216,2247
25/05/2019 15:43:47.220,2147
25/05/2019 15:43:47.224,2247
25/05/2019 15:43:47.228,2271
25/05/2019 15:43:47.232,2227
25/05/2019 15:43:47.236,2163
25/05/2019 15:43:47.240,2271
25/05/2019 15:43:47.244,2339
25/05/2019 15:43:47.248,2311
25/05/2019 15:43:47.252,2283
25/05/2019 15:43:47.256,2367
25/05/2019 15:43:47.260,2435
25/05/2019 15:43:47.264,2359
25/05/2019 15:43:47.268,2267
25/05/2019 15:43:47.272,2283
25/05/2019 15:43:47.276,2387
25/05/2019 15:43:47.280,2347
25/05/2019 15:43:47.284,2271
25/05/2019 15:43:47.288,2247
25/05/2019 15:43:47.292,2359
25/05/2019 15:43:47.296,2327
25/05/2019 15:43:47.300,2251
25/05/2019 15:43:47.304,2195
25/05/2019 15:43:47.308,2431
25/05/2019 15:43:47.312,2515
25/05/2019 15:43:47.316,2415
25/05/2019 15:43:47.320,2239
25/05/2019 15:43:47.324,2219
25/05/2019 15:43:47.328,2099
25/05/2019 15:43:47.332,1955
25/05/2019 15:43:47.336,1855
25/05/2019 15:43:47.340,1999
25/05/2019 15:43:47.344,2211
25/05/2019 15:43:47.348,2439
25/05/2019 15:43:47.352,2683
25/05/2019 15:43:47.356,2899
25/05/2019 15:43:47.360,2855
25/05/2019 15:43:47.364,2627
25/05/2019 15:43:47.368,2395
25/05/2019 15:43:47.372,2319
25/05/2019 15:43:47.376,2359
25/05/2019 15:43:47.380,2315
25/05/2019 15:43:47.384,2259
25/05/2019 15:43:47.388,2239
25/05/2019 15:43:47.392,2315
25/05/2019 15:43:47.396,2263
25/05/2019 15:43:47.400,2167
25/05/2019 15:43:47.404,2123
25/05/2019 15:43:47.408,2259
25/05/2019 15:43:47.412,2263
25/05/2019 15:43:47.416,2223
25/05/2019 15:43:47.420,2183
25/05/2019 15:43:47.424,2399
25/05/2019 15:43:47.428,2451
25/05/2019 15:43:47.432,2375
25/05/2019 15:43:47.436,2263
25/05/2019 15:43:47.440,2351
25/05/2019 15:43:47.444,2387
25/05/2019 15:43:47.448,2335
25/05/2019 15:43:47.452,2251
25/05/2019 15:43:47.456,2331
25/05/2019 15:43:47.460,2399
25/05/2019 15:43:47.464,2335
25/05/2019 15:43:47.468,2227
25/05/2019 15:43:47.472,2243
25/05/2019 15:43:47.476,2311
25/05/2019 15:43:47.480,2271
25/05/2019 15:43:47.484,2207
25/05/2019 15:43:47.488,2219
25/05/2019 15:43:47.492,2335
25/05/2019 15:43:47.496,2295
25/05/2019 15:43:47.500,2211
25/05/2019 15:43:47.504,2167
25/05/2019 15:43:47.508,2275
25/05/2019 15:43:47.512,2259
25/05/2019 15:43:47.516,2203
25/05/2019 15:43:47.520,2155
25/05/2019 15:43:47.524,2279
25/05/2019 15:43:47.528,2251
25/05/2019 15:43:47.532,2155
25/05/2019 15:43:47.536,2107
25/05/2019 15:43:47.540,2255
25/05/2019 15:43:47.544,2323
25/05/2019 15:43:47.548,2283
25/05/2019 15:43:47.552,2207
25/05/2019 15:43:47.556,2295
25/05/2019 15:43:47.560,2367
25/05/2019 15:43:47.564,2319
25/05/2019 15:43:47.568,2239
25/05/2019 15:43:47.572,2295
25/05/2019 15:43:47.576,2391
25/05/2019 15:43:47.580,2351
25/05/2019 15:43:47.584,2263
25/05/2019 15:43:47.588,2275
25/05/2019 15:43:47.592,2387
25/05/2019 15:43:47.596,2347
25/05/2019 15:43:47.600,2275
25/05/2019 15:43:47.604,2251
25/05/2019 15:43:47.608,2371
25/05/2019 15:43:47.612,2359
25/05/2019 15:43:47.616,2299
25/05/2019 15:43:47.620,2255
25/05/2019 15:43:47.624,2371
25/05/2019 15:43:47.628,2363
25/05/2019 15:43:47.632,2299
25/05/2019 15:43:47.636,2227
25/05/2019 15:43:47.640,2347
25/05/2019 15:43:47.644,2363
25/05/2019 15:43:47.648,2307
25/05/2019 15:43:47.652,2219
25/05/2019 15:43:47.656,2271
25/05/2019 15:43:47.660,2247
25/05/2019 15:43:47.664,2179
25/05/2019 15:43:47.668,2115
25/05/2019 15:43:47.672,2199
25/05/2019 15:43:47.676,2299
25/05/2019 15:43:47.680,2259
25/05/2019 15:43:47.684,2187
25/05/2019 15:43:47.688,2219
25/05/2019 15:43:47.692,2327
25/05/2019 15:43:47.696,2315
25/05/2019 15:43:47.700,2259
25/05/2019 15:43:47.704,2243
25/05/2019 15:43:47.708,2363
25/05/2019 15:43:47.712,2343
25/05/2019 15:43:47.716,2271
25/05/2019 15:43:47.720,2231
25/05/2019 15:43:47.724,2355
25/05/2019 15:43:47.728,2355
25/05/2019 15:43:47.732,2295
25/05/2019 15:43:47.736,2215
25/05/2019 15:43:47.740,2319
25/05/2019 15:43:47.744,2343
25/05/2019 15:43:47.748,2303
25/05/2019 15:43:47.752,2243
25/05/2019 15:43:47.756,2339
25/05/2019 15:43:47.760,2379
25/05/2019 15:43:47.764,2335
25/05/2019 15:43:47.768,2247
25/05/2019 15:43:47.772,2299
25/05/2019 15:43:47.776,2363
25/05/2019 15:43:47.780,2323
25/05/2019 15:43:47.784,2247
25/05/2019 15:43:47.788,2283
25/05/2019 15:43:47.792,2375
25/05/2019 15:43:47.796,2335
25/05/2019 15:43:47.800,2259
25/05/2019 15:43:47.804,2259
25/05/2019 15:43:47.808,2367
25/05/2019 15:43:47.812,2331
25/05/2019 15:43:47.816,2255
25/05/2019 15:43:47.820,2219
25/05/2019 15:43:47.824,2335
25/05/2019 15:43:47.828,2327
25/05/2019 15:43:47.832,2259
25/05/2019 15:43:47.836,2175
25/05/2019 15:43:47.840,2279
25/05/2019 15:43:47.844,2283
25/05/2019 15:43:47.848,2239
25/05/2019 15:43:47.852,2175
25/05/2019 15:43:47.856,2287
25/05/2019 15:43:47.860,2323
25/05/2019 15:43:47.864,2263
25/05/2019 15:43:47.868,2187
25/05/2019 15:43:47.872,2263
25/05/2019 15:43:47.876,2335
25/05/2019 15:43:47.880,2283
25/05/2019 15:43:47.884,2199
25/05/2019 15:43:47.888,2243
25/05/2019 15:43:47.892,2331
25/05/2019 15:43:47.896,2283
25/05/2019 15:43:47.900,2203
25/05/2019 15:43:47.904,2199
25/05/2019 15:43:47.908,2303
25/05/2019 15:43:47.912,2287
25/05/2019 15:43:47.916,2239
25/05/2019 15:43:47.920,2223
25/05/2019 15:43:47.924,2347
25/05/2019 15:43:47.928,2339
25/05/2019 15:43:47.932,2275
25/05/2019 15:43:47.936,2215
25/05/2019 15:43:47.940,2327
25/05/2019 15:43:47.944,2327
25/05/2019 15:43:47.948,2271
25/05/2019 15:43:47.952,2203
25/05/2019 15:43:47.956,2311
25/05/2019 15:43:47.960,2343
25/05/2019 15:43:47.964,2255
25/05/2019 15:43:47.968,2163
25/05/2019 15:43:47.972,2251
25/05/2019 15:43:47.976,2319
25/05/2019 15:43:47.980,2275
25/05/2019 15:43:47.984,2199
25/05/2019 15:43:47.988,2255
25/05/2019 15:43:47.992,2343
25/05/2019 15:43:47.996,2315
25/05/2019 15:43:48.000,2247
25/05/2019 15:43:48.004,2259
25/05/2019 15:43:48.008,2367
25/05/2019 15:43:48.012,2343
25/05/2019 15:43:48.016,2271
25/05/2019 15:43:48.020,2251
25/05/2019 15:43:48.024,2363
25/05/2019 15:43:48.028,2339
25/05/2019 15:43:48.032,2267
25/05/2019 15:43:48.036,2215
25/05/2019 15:43:48.040,2327
25/05/2019 15:43:48.044,2331
25/05/2019 15:43:48.048,2271
25/05/2019 15:43:48.052,2191
25/05/2019 15:43:48.056,2295
25/05/2019 15:43:48.060,2315
25/05/2019 15:43:48.064,2259
25/05/2019 15:43:48.068,2175
25/05/2019 15:43:48.072,2275
25/05/2019 15:43:48.076,2335
25/05/2019 15:43:48.080,2279
25/05/2019 15:43:48.084,2207
25/05/2019 15:43:48.088,2279
25/05/2019 15:43:48.092,2331
25/05/2019 15:43:48.096,2219
25/05/2019 15:43:48.100,2055
25/05/2019 15:43:48.104,1991
25/05/2019 15:43:48.108,2039
25/05/2019 15:43:48.112,1975
25/05/2019 15:43:48.116,1911
25/05/2019 15:43:48.120,2011
25/05/2019 15:43:48.124,2379
25/05/2019 15:43:48.128,2679
25/05/2019 15:43:48.132,2823
25/05/2019 15:43:48.136,2707
25/05/2019 15:43:48.140,2639
25/05/2019 15:43:48.144,2483
25/05/2019 15:43:48.148,2295
25/05/2019 15:43:48.152,2151
25/05/2019 15:43:48.156,2203
25/05/2019 15:43:48.160,2199
25/05/2019 15:43:48.164,2139
25/05/2019 15:43:48.168,2075
25/05/2019 15:43:48.172,2183
25/05/2019 15:43:48.176,2247
25/05/2019 15:43:48.180,2223
25/05/2019 15:43:48.184,2151
25/05/2019 15:43:48.188,2167
25/05/2019 15:43:48.192,2099
25/05/2019 15:43:48.196,1907
25/05/2019 15:43:48.200,1855
25/05/2019 15:43:48.204,1991
25/05/2019 15:43:48.208,2183
25/05/2019 15:43:48.212,2211
25/05/2019 15:43:48.216,2187
25/05/2019 15:43:48.220,2235
25/05/2019 15:43:48.224,2387
25/05/2019 15:43:48.228,2391
25/05/2019 15:43:48.232,2327
25/05/2019 15:43:48.236,2291
25/05/2019 15:43:48.240,2395
25/05/2019 15:43:48.244,2371
25/05/2019 15:43:48.248,2291
25/05/2019 15:43:48.252,2239
25/05/2019 15:43:48.256,2323
25/05/2019 15:43:48.260,2339
25/05/2019 15:43:48.264,2311
25/05/2019 15:43:48.268,2211
25/05/2019 15:43:48.272,2231
25/05/2019 15:43:48.276,2231
25/05/2019 15:43:48.280,2195
25/05/2019 15:43:48.284,2139
25/05/2019 15:43:48.288,2255
25/05/2019 15:43:48.292,2343
25/05/2019 15:43:48.296,2323
25/05/2019 15:43:48.300,2251
25/05/2019 15:43:48.304,2295
25/05/2019 15:43:48.308,2367
25/05/2019 15:43:48.312,2287
25/05/2019 15:43:48.316,2211
25/05/2019 15:43:48.320,2271
25/05/2019 15:43:48.324,2411
25/05/2019 15:43:48.328,2399
25/05/2019 15:43:48.332,2343
25/05/2019 15:43:48.336,2255
25/05/2019 15:43:48.340,2323
25/05/2019 15:43:48.344,2291
25/05/2019 15:43:48.348,2231
25/05/2019 15:43:48.352,2175
25/05/2019 15:43:48.356,2287
25/05/2019 15:43:48.360,2315
25/05/2019 15:43:48.364,2287
25/05/2019 15:43:48.368,2251
25/05/2019 15:43:48.372,2351
25/05/2019 15:43:48.376,2359
25/05/2019 15:43:48.380,2299
25/05/2019 15:43:48.384,2231
25/05/2019 15:43:48.388,2311
25/05/2019 15:43:48.392,2367
25/05/2019 15:43:48.396,2331
25/05/2019 15:43:48.400,2243
25/05/2019 15:43:48.404,2295
25/05/2019 15:43:48.408,2379
25/05/2019 15:43:48.412,2339
25/05/2019 15:43:48.416,2243
25/05/2019 15:43:48.420,2207
25/05/2019 15:43:48.424,2291
25/05/2019 15:43:48.428,2263
25/05/2019 15:43:48.432,2207
25/05/2019 15:43:48.436,2191
25/05/2019 15:43:48.440,2291
25/05/2019 15:43:48.444,2283
25/05/2019 15:43:48.448,2231
25/05/2019 15:43:48.452,2195
25/05/2019 15:43:48.456,2295
25/05/2019 15:43:48.460,2287
25/05/2019 15:43:48.464,2223
25/05/2019 15:43:48.468,2151
25/05/2019 15:43:48.472,2255
25/05/2019 15:43:48.476,2279
25/05/2019 15:43:48.480,2235
25/05/2019 15:43:48.484,2151
25/05/2019 15:43:48.488,2227
25/05/2019 15:43:48.492,2147
25/05/2019 15:43:48.496,1919
25/05/2019 15:43:48.500,1879
25/05/2019 15:43:48.504,2039
25/05/2019 15:43:48.508,2207
25/05/2019 15:43:48.512,2243
25/05/2019 15:43:48.516,2239
25/05/2019 15:43:48.520,2315
25/05/2019 15:43:48.524,2423
25/05/2019 15:43:48.528,2383
25/05/2019 15:43:48.532,2311
25/05/2019 15:43:48.536,2291
25/05/2019 15:43:48.540,2375
25/05/2019 15:43:48.544,2335
25/05/2019 15:43:48.548,2283
25/05/2019 15:43:48.552,2271
25/05/2019 15:43:48.556,2367
25/05/2019 15:43:48.560,2339
25/05/2019 15:43:48.564,2263
25/05/2019 15:43:48.568,2199
25/05/2019 15:43:48.572,2279
25/05/2019 15:43:48.576,2295
25/05/2019 15:43:48.580,2259
25/05/2019 15:43:48.584,2111
25/05/2019 15:43:48.588,2155
25/05/2019 15:43:48.592,2179
25/05/2019 15:43:48.596,2159
25/05/2019 15:43:48.600,2099
25/05/2019 15:43:48.604,2207
25/05/2019 15:43:48.608,2283
25/05/2019 15:43:48.612,2211
25/05/2019 15:43:48.616,2067
25/05/2019 15:43:48.620,2115
25/05/2019 15:43:48.624,2271
25/05/2019 15:43:48.628,2307
25/05/2019 15:43:48.632,2287
25/05/2019 15:43:48.636,2319
25/05/2019 15:43:48.640,2419
25/05/2019 15:43:48.644,2403
25/05/2019 15:43:48.648,2363
25/05/2019 15:43:48.652,2323
25/05/2019 15:43:48.656,2411
25/05/2019 15:43:48.660,2387
25/05/2019 15:43:48.664,2327
25/05/2019 15:43:48.668,2267
25/05/2019 15:43:48.672,2371
25/05/2019 15:43:48.676,2375
25/05/2019 15:43:48.680,2311
25/05/2019 15:43:48.684,2231
25/05/2019 15:43:48.688,2295
25/05/2019 15:43:48.692,2307
25/05/2019 15:43:48.696,2271
25/05/2019 15:43:48.700,2195
25/05/2019 15:43:48.704,2267
25/05/2019 15:43:48.708,2315
25/05/2019 15:43:48.712,2275
25/05/2019 15:43:48.716,2207
25/05/2019 15:43:48.720,2251
25/05/2019 15:43:48.724,2327
25/05/2019 15:43:48.728,2291
25/05/2019 15:43:48.732,2215
25/05/2019 15:43:48.736,2227
25/05/2019 15:43:48.740,2315
25/05/2019 15:43:48.744,2283
25/05/2019 15:43:48.748,2227
25/05/2019 15:43:48.752,2199
25/05/2019 15:43:48.756,2279
25/05/2019 15:43:48.760,2255
25/05/2019 15:43:48.764,2183
25/05/2019 15:43:48.768,2139
25/05/2019 15:43:48.772,2263
25/05/2019 15:43:48.776,2279
25/05/2019 15:43:48.780,2239
25/05/2019 15:43:48.784,2179
25/05/2019 15:43:48.788,2275
25/05/2019 15:43:48.792,2303
25/05/2019 15:43:48.796,2259
25/05/2019 15:43:48.800,2179
25/05/2019 15:43:48.804,2247
25/05/2019 15:43:48.808,2279
25/05/2019 15:43:48.812,2243
25/05/2019 15:43:48.816,2167
25/05/2019 15:43:48.820,2223
25/05/2019 15:43:48.824,2291
25/05/2019 15:43:48.828,2247
25/05/2019 15:43:48.832,2187
25/05/2019 15:43:48.836,2211
25/05/2019 15:43:48.840,2295
25/05/2019 15:43:48.844,2263
25/05/2019 15:43:48.848,2199
25/05/2019 15:43:48.852,2187
25/05/2019 15:43:48.856,2295
25/05/2019 15:43:48.860,2287
25/05/2019 15:43:48.864,2203
25/05/2019 15:43:48.868,2111
25/05/2019 15:43:48.872,2123
25/05/2019 15:43:48.876,2027
25/05/2019 15:43:48.880,1935
25/05/2019 15:43:48.884,1863
25/05/2019 15:43:48.888,1983
25/05/2019 15:43:48.892,2139
25/05/2019 15:43:48.896,2359
25/05/2019 15:43:48.900,2611
25/05/2019 15:43:48.904,2827
25/05/2019 15:43:48.908,2747
25/05/2019 15:43:48.912,2519
25/05/2019 15:43:48.916,2303
25/05/2019 15:43:48.920,2267
25/05/2019 15:43:48.924,2279
25/05/2019 15:43:48.928,2203
25/05/2019 15:43:48.932,2099
25/05/2019 15:43:48.936,2107
25/05/2019 15:43:48.940,2207
25/05/2019 15:43:48.944,2195
25/05/2019 15:43:48.948,2127
25/05/2019 15:43:48.952,2131
25/05/2019 15:43:48.956,2223
25/05/2019 15:43:48.960,2211
25/05/2019 15:43:48.964,2163
25/05/2019 15:43:48.968,2159
25/05/2019 15:43:48.972,2283
25/05/2019 15:43:48.976,2287
25/05/2019 15:43:48.980,2235
25/05/2019 15:43:48.984,2183
25/05/2019 15:43:48.988,2287
25/05/2019 15:43:48.992,2315
25/05/2019 15:43:48.996,2275
25/05/2019 15:43:49.000,2215
25/05/2019 15:43:49.004,2291
25/05/2019 15:43:49.008,2311
25/05/2019 15:43:49.012,2247
25/05/2019 15:43:49.016,2183
25/05/2019 15:43:49.020,2251
25/05/2019 15:43:49.024,2311
25/05/2019 15:43:49.028,2271
25/05/2019 15:43:49.032,2195
25/05/2019 15:43:49.036,2235
25/05/2019 15:43:49.040,2299
25/05/2019 15:43:49.044,2251
25/05/2019 15:43:49.048,2179
25/05/2019 15:43:49.052,2191
25/05/2019 15:43:49.056,2295
25/05/2019 15:43:49.060,2275
25/05/2019 15:43:49.064,2215
25/05/2019 15:43:49.068,2191
25/05/2019 15:43:49.072,2295
25/05/2019 15:43:49.076,2275
25/05/2019 15:43:49.080,2219
25/05/2019 15:43:49.084,2171
25/05/2019 15:43:49.088,2279
25/05/2019 15:43:49.092,2283
25/05/2019 15:43:49.096,2247
25/05/2019 15:43:49.100,2203
25/05/2019 15:43:49.104,2319
25/05/2019 15:43:49.108,2359
25/05/2019 15:43:49.112,2307
25/05/2019 15:43:49.116,2223
25/05/2019 15:43:49.120,2287
25/05/2019 15:43:49.124,2319
25/05/2019 15:43:49.128,2263
25/05/2019 15:43:49.132,2191
25/05/2019 15:43:49.136,2235
25/05/2019 15:43:49.140,2343
25/05/2019 15:43:49.144,2359
25/05/2019 15:43:49.148,2283
25/05/2019 15:43:49.152,2263
25/05/2019 15:43:49.156,2323
25/05/2019 15:43:49.160,2275
25/05/2019 15:43:49.164,2223
25/05/2019 15:43:49.168,2219
25/05/2019 15:43:49.172,2323
25/05/2019 15:43:49.176,2299
25/05/2019 15:43:49.180,2235
25/05/2019 15:43:49.184,2191
25/05/2019 15:43:49.188,2291
25/05/2019 15:43:49.192,2291
25/05/2019 15:43:49.196,2231
25/05/2019 15:43:49.200,2167
25/05/2019 15:43:49.204,2255
25/05/2019 15:43:49.208,2259
25/05/2019 15:43:49.212,2199
25/05/2019 15:43:49.216,2111
25/05/2019 15:43:49.220,2187
25/05/2019 15:43:49.224,2223
25/05/2019 15:43:49.228,2167
25/05/2019 15:43:49.232,2083
25/05/2019 15:43:49.236,2139
25/05/2019 15:43:49.240,2215
25/05/2019 15:43:49.244,2191
25/05/2019 15:43:49.248,2139
25/05/2019 15:43:49.252,2163
25/05/2019 15:43:49.256,2243
25/05/2019 15:43:49.260,2207
25/05/2019 15:43:49.264,2131
25/05/2019 15:43:49.268,2107
25/05/2019 15:43:49.272,2195
25/05/2019 15:43:49.276,2139
25/05/2019 15:43:49.280,2063
25/05/2019 15:43:49.284,2035
25/05/2019 15:43:49.288,2159
25/05/2019 15:43:49.292,2187
25/05/2019 15:43:49.296,2147
25/05/2019 15:43:49.300,2099
25/05/2019 15:43:49.304,2199
25/05/2019 15:43:49.308,2219
25/05/2019 15:43:49.312,2179
25/05/2019 15:43:49.316,2099
25/05/2019 15:43:49.320,2207
25/05/2019 15:43:49.324,2271
25/05/2019 15:43:49.328,2247
25/05/2019 15:43:49.332,2191
25/05/2019 15:43:49.336,2267
25/05/2019 15:43:49.340,2327
25/05/2019 15:43:49.344,2275
25/05/2019 15:43:49.348,2199
25/05/2019 15:43:49.352,2239
25/05/2019 15:43:49.356,2323
25/05/2019 15:43:49.360,2291
25/05/2019 15:43:49.364,2223
25/05/2019 15:43:49.368,2227
25/05/2019 15:43:49.372,2319
25/05/2019 15:43:49.376,2291
25/05/2019 15:43:49.380,2223
25/05/2019 15:43:49.384,2191
25/05/2019 15:43:49.388,2291
25/05/2019 15:43:49.392,2283
25/05/2019 15:43:49.396,2227
25/05/2019 15:43:49.400,2171
25/05/2019 15:43:49.404,2271
25/05/2019 15:43:49.408,2275
25/05/2019 15:43:49.412,2223
25/05/2019 15:43:49.416,2151
25/05/2019 15:43:49.420,2239
25/05/2019 15:43:49.424,2275
25/05/2019 15:43:49.428,2223
25/05/2019 15:43:49.432,2143
25/05/2019 15:43:49.436,2211
25/05/2019 15:43:49.440,2267
25/05/2019 15:43:49.444,2219
25/05/2019 15:43:49.448,2147
25/05/2019 15:43:49.452,2195
25/05/2019 15:43:49.456,2271
25/05/2019 15:43:49.460,2239
25/05/2019 15:43:49.464,2163
25/05/2019 15:43:49.468,2167
25/05/2019 15:43:49.472,2259
25/05/2019 15:43:49.476,2235
25/05/2019 15:43:49.480,2183
25/05/2019 15:43:49.484,2167
25/05/2019 15:43:49.488,2275
25/05/2019 15:43:49.492,2251
25/05/2019 15:43:49.496,2191
25/05/2019 15:43:49.500,2155
25/05/2019 15:43:49.504,2267
25/05/2019 15:43:49.508,2267
25/05/2019 15:43:49.512,2215
25/05/2019 15:43:49.516,2147
25/05/2019 15:43:49.520,2251
25/05/2019 15:43:49.524,2275
25/05/2019 15:43:49.528,2227
25/05/2019 15:43:49.532,2151
25/05/2019 15:43:49.536,2231
25/05/2019 15:43:49.540,2279
25/05/2019 15:43:49.544,2235
25/05/2019 15:43:49.548,2151
25/05/2019 15:43:49.552,2211
25/05/2019 15:43:49.556,2287
25/05/2019 15:43:49.560,2243
25/05/2019 15:43:49.564,2163
25/05/2019 15:43:49.568,2183
25/05/2019 15:43:49.572,2267
25/05/2019 15:43:49.576,2231
25/05/2019 15:43:49.580,2167
25/05/2019 15:43:49.584,2151
25/05/2019 15:43:49.588,2255
25/05/2019 15:43:49.592,2251
25/05/2019 15:43:49.596,2195
25/05/2019 15:43:49.600,2159
25/05/2019 15:43:49.604,2271
25/05/2019 15:43:49.608,2271
25/05/2019 15:43:49.612,2207
25/05/2019 15:43:49.616,2135
25/05/2019 15:43:49.620,2231
25/05/2019 15:43:49.624,2255
25/05/2019 15:43:49.628,2211
25/05/2019 15:43:49.632,2155
25/05/2019 15:43:49.636,2283
25/05/2019 15:43:49.640,2343
25/05/2019 15:43:49.644,2291
25/05/2019 15:43:49.648,2199
25/05/2019 15:43:49.652,2243
25/05/2019 15:43:49.656,2291
25/05/2019 15:43:49.660,2243
25/05/2019 15:43:49.664,2155
25/05/2019 15:43:49.668,2179
25/05/2019 15:43:49.672,2267
25/05/2019 15:43:49.676,2231
25/05/2019 15:43:49.680,2155
25/05/2019 15:43:49.684,2151
25/05/2019 15:43:49.688,2251
25/05/2019 15:43:49.692,2231
25/05/2019 15:43:49.696,2187
25/05/2019 15:43:49.700,2159
25/05/2019 15:43:49.704,2271
25/05/2019 15:43:49.708,2283
25/05/2019 15:43:49.712,2235
25/05/2019 15:43:49.716,2159
25/05/2019 15:43:49.720,2199
25/05/2019 15:43:49.724,2123
25/05/2019 15:43:49.728,1975
25/05/2019 15:43:49.732,1843
25/05/2019 15:43:49.736,1903
25/05/2019 15:43:49.740,1947
25/05/2019 15:43:49.744,1999
25/05/2019 15:43:49.748,2139
25/05/2019 15:43:49.752,2527
25/05/2019 15:43:49.756,2823
25/05/2019 15:43:49.760,2731
25/05/2019 15:43:49.764,2471
25/05/2019 15:43:49.768,2355
25/05/2019 15:43:49.772,2327
25/05/2019 15:43:49.776,2235
25/05/2019 15:43:49.780,2143
25/05/2019 15:43:49.784,2115
25/05/2019 15:43:49.788,2207
25/05/2019 15:43:49.792,2199
25/05/2019 15:43:49.796,2147
25/05/2019 15:43:49.800,2107
25/05/2019 15:43:49.804,2187
25/05/2019 15:43:49.808,2175
25/05/2019 15:43:49.812,2119
25/05/2019 15:43:49.816,2043
25/05/2019 15:43:49.820,2135
25/05/2019 15:43:49.824,2147
25/05/2019 15:43:49.828,2099
25/05/2019 15:43:49.832,2031
25/05/2019 15:43:49.836,2135
25/05/2019 15:43:49.840,2179
25/05/2019 15:43:49.844,2147
25/05/2019 15:43:49.848,2099
25/05/2019 15:43:49.852,2207
25/05/2019 15:43:49.856,2279
25/05/2019 15:43:49.860,2247
25/05/2019 15:43:49.864,2175
25/05/2019 15:43:49.868,2219
25/05/2019 15:43:49.872,2259
25/05/2019 15:43:49.876,2203
25/05/2019 15:43:49.880,2151
25/05/2019 15:43:49.884,2191
25/05/2019 15:43:49.888,2287
25/05/2019 15:43:49.892,2259
25/05/2019 15:43:49.896,2199
25/05/2019 15:43:49.900,2179
25/05/2019 15:43:49.904,2287
25/05/2019 15:43:49.908,2267
25/05/2019 15:43:49.912,2203
25/05/2019 15:43:49.916,2151
25/05/2019 15:43:49.920,2251
25/05/2019 15:43:49.924,2247
25/05/2019 15:43:49.928,2191
25/05/2019 15:43:49.932,2131
25/05/2019 15:43:49.936,2227
25/05/2019 15:43:49.940,2251
25/05/2019 15:43:49.944,2203
25/05/2019 15:43:49.948,2131
25/05/2019 15:43:49.952,2211
25/05/2019 15:43:49.956,2255
25/05/2019 15:43:49.960,2211
25/05/2019 15:43:49.964,2139
25/05/2019 15:43:49.968,2199
25/05/2019 15:43:49.972,2263
25/05/2019 15:43:49.976,2219
25/05/2019 15:43:49.980,2151
25/05/2019 15:43:49.984,2187
25/05/2019 15:43:49.988,2279
25/05/2019 15:43:49.992,2255
25/05/2019 15:43:49.996,2187
25/05/2019 15:43:50.000,2183
25/05/2019 15:43:50.004,2291
25/05/2019 15:43:50.008,2267
25/05/2019 15:43:50.012,2211
25/05/2019 15:43:50.016,2171
25/05/2019 15:43:50.020,2275
25/05/2019 15:43:50.024,2271
25/05/2019 15:43:50.028,2219
25/05/2019 15:43:50.032,2163
25/05/2019 15:43:50.036,2263
25/05/2019 15:43:50.040,2279
25/05/2019 15:43:50.044,2223
25/05/2019 15:43:50.048,2139
25/05/2019 15:43:50.052,2219
25/05/2019 15:43:50.056,2259
25/05/2019 15:43:50.060,2203
25/05/2019 15:43:50.064,2107
25/05/2019 15:43:50.068,2175
25/05/2019 15:43:50.072,2255
25/05/2019 15:43:50.076,2219
25/05/2019 15:43:50.080,2131
25/05/2019 15:43:50.084,2151
25/05/2019 15:43:50.088,2239
25/05/2019 15:43:50.092,2207
25/05/2019 15:43:50.096,2135
25/05/2019 15:43:50.100,2143
25/05/2019 15:43:50.104,2267
25/05/2019 15:43:50.108,2247
25/05/2019 15:43:50.112,2183
25/05/2019 15:43:50.116,2151
25/05/2019 15:43:50.120,2255
25/05/2019 15:43:50.124,2231
25/05/2019 15:43:50.128,2159
25/05/2019 15:43:50.132,2099
25/05/2019 15:43:50.136,2211
25/05/2019 15:43:50.140,2231
25/05/2019 15:43:50.144,2183
25/05/2019 15:43:50.148,2107
25/05/2019 15:43:50.152,2207
25/05/2019 15:43:50.156,2247
25/05/2019 15:43:50.160,2207
25/05/2019 15:43:50.164,2139
25/05/2019 15:43:50.168,2207
25/05/2019 15:43:50.172,2239
25/05/2019 15:43:50.176,2203
25/05/2019 15:43:50.180,2127
25/05/2019 15:43:50.184,2159
25/05/2019 15:43:50.188,2255
25/05/2019 15:43:50.192,2231
25/05/2019 15:43:50.196,2147
25/05/2019 15:43:50.200,2163
25/05/2019 15:43:50.204,2259
25/05/2019 15:43:50.208,2227
25/05/2019 15:43:50.212,2159
25/05/2019 15:43:50.216,2127
25/05/2019 15:43:50.220,2231
25/05/2019 15:43:50.224,2203
25/05/2019 15:43:50.228,2139
25/05/2019 15:43:50.232,2095
25/05/2019 15:43:50.236,2219
25/05/2019 15:43:50.240,2239
25/05/2019 15:43:50.244,2203
25/05/2019 15:43:50.248,2135
25/05/2019 15:43:50.252,2239
25/05/2019 15:43:50.256,2275
25/05/2019 15:43:50.260,2227
25/05/2019 15:43:50.264,2143
25/05/2019 15:43:50.268,2215
25/05/2019 15:43:50.272,2259
25/05/2019 15:43:50.276,2203
25/05/2019 15:43:50.280,2111
25/05/2019 15:43:50.284,2155
25/05/2019 15:43:50.288,2227
25/05/2019 15:43:50.292,2195
25/05/2019 15:43:50.296,2123
25/05/2019 15:43:50.300,2127
25/05/2019 15:43:50.304,2219
25/05/2019 15:43:50.308,2199
25/05/2019 15:43:50.312,2135
25/05/2019 15:43:50.316,2127
25/05/2019 15:43:50.320,2231
25/05/2019 15:43:50.324,2223
25/05/2019 15:43:50.328,2155
25/05/2019 15:43:50.332,2123
25/05/2019 15:43:50.336,2235
25/05/2019 15:43:50.340,2235
25/05/2019 15:43:50.344,2175
25/05/2019 15:43:50.348,2115
25/05/2019 15:43:50.352,2223
25/05/2019 15:43:50.356,2251
25/05/2019 15:43:50.360,2199
25/05/2019 15:43:50.364,2123
25/05/2019 15:43:50.368,2195
25/05/2019 15:43:50.372,2235
25/05/2019 15:43:50.376,2187
25/05/2019 15:43:50.380,2111
25/05/2019 15:43:50.384,2171
25/05/2019 15:43:50.388,2243
25/05/2019 15:43:50.392,2199
25/05/2019 15:43:50.396,2131
25/05/2019 15:43:50.400,2167
25/05/2019 15:43:50.404,2255
25/05/2019 15:43:50.408,2207
25/05/2019 15:43:50.412,2135
25/05/2019 15:43:50.416,2131
25/05/2019 15:43:50.420,2235
25/05/2019 15:43:50.424,2219
25/05/2019 15:43:50.428,2163
25/05/2019 15:43:50.432,2131
25/05/2019 15:43:50.436,2247
25/05/2019 15:43:50.440,2243
25/05/2019 15:43:50.444,2191
25/05/2019 15:43:50.448,2143
25/05/2019 15:43:50.452,2251
25/05/2019 15:43:50.456,2263
25/05/2019 15:43:50.460,2211
25/05/2019 15:43:50.464,2127
25/05/2019 15:43:50.468,2219
25/05/2019 15:43:50.472,2099
25/05/2019 15:43:50.476,1979
25/05/2019 15:43:50.480,1947
25/05/2019 15:43:50.484,2075
25/05/2019 15:43:50.488,2199
25/05/2019 15:43:50.492,2199
25/05/2019 15:43:50.496,2135
25/05/2019 15:43:50.500,2115
25/05/2019 15:43:50.504,2211
25/05/2019 15:43:50.508,2211
25/05/2019 15:43:50.512,2167
25/05/2019 15:43:50.516,2207
25/05/2019 15:43:50.520,2319
25/05/2019 15:43:50.524,2239
25/05/2019 15:43:50.528,2163
25/05/2019 15:43:50.532,2151
25/05/2019 15:43:50.536,2267
25/05/2019 15:43:50.540,2231
25/05/2019 15:43:50.544,2171
25/05/2019 15:43:50.548,2131
25/05/2019 15:43:50.552,2255
25/05/2019 15:43:50.556,2247
25/05/2019 15:43:50.560,2187
25/05/2019 15:43:50.564,2111
25/05/2019 15:43:50.568,2207
25/05/2019 15:43:50.572,2239
25/05/2019 15:43:50.576,2199
25/05/2019 15:43:50.580,2131
25/05/2019 15:43:50.584,2219
25/05/2019 15:43:50.588,2271
25/05/2019 15:43:50.592,2215
25/05/2019 15:43:50.596,2115
25/05/2019 15:43:50.600,2155
25/05/2019 15:43:50.604,2243
25/05/2019 15:43:50.608,2211
25/05/2019 15:43:50.612,2135
25/05/2019 15:43:50.616,2147
25/05/2019 15:43:50.620,2251
25/05/2019 15:43:50.624,2239
25/05/2019 15:43:50.628,2175
25/05/2019 15:43:50.632,2147
25/05/2019 15:43:50.636,2247
25/05/2019 15:43:50.640,2239
25/05/2019 15:43:50.644,2171
25/05/2019 15:43:50.648,2131
25/05/2019 15:43:50.652,2243
25/05/2019 15:43:50.656,2239
25/05/2019 15:43:50.660,2195
25/05/2019 15:43:50.664,2151
25/05/2019 15:43:50.668,2235
25/05/2019 15:43:50.672,2203
25/05/2019 15:43:50.676,2075
25/05/2019 15:43:50.680,1883
25/05/2019 15:43:50.684,1783
25/05/2019 15:43:50.688,1791
25/05/2019 15:43:50.692,1803
25/05/2019 15:43:50.696,1859
25/05/2019 15:43:50.700,2151
25/05/2019 15:43:50.704,2543
25/05/2019 15:43:50.708,2751
25/05/2019 15:43:50.712,2655
25/05/2019 15:43:50.716,2499
25/05/2019 15:43:50.720,2439
25/05/2019 15:43:50.724,2303
25/05/2019 15:43:50.728,2175
25/05/2019 15:43:50.732,2135
25/05/2019 15:43:50.736,2235
25/05/2019 15:43:50.740,2215
25/05/2019 15:43:50.744,2159
25/05/2019 15:43:50.748,2131
25/05/2019 15:43:50.752,2231
25/05/2019 15:43:50.756,2211
25/05/2019 15:43:50.760,2151
25/05/2019 15:43:50.764,2103
25/05/2019 15:43:50.768,2203
25/05/2019 15:43:50.772,2215
25/05/2019 15:43:50.776,2171
25/05/2019 15:43:50.780,2111
25/05/2019 15:43:50.784,2179
25/05/2019 15:43:50.788,2219
25/05/2019 15:43:50.792,2199
25/05/2019 15:43:50.796,2139
25/05/2019 15:43:50.800,2203
25/05/2019 15:43:50.804,2271
25/05/2019 15:43:50.808,2223
25/05/2019 15:43:50.812,2119
25/05/2019 15:43:50.816,2139
25/05/2019 15:43:50.820,2211
25/05/2019 15:43:50.824,2175
25/05/2019 15:43:50.828,2123
25/05/2019 15:43:50.832,2119
25/05/2019 15:43:50.836,2215
25/05/2019 15:43:50.840,2203
25/05/2019 15:43:50.844,2159
25/05/2019 15:43:50.848,2147
25/05/2019 15:43:50.852,2259
25/05/2019 15:43:50.856,2243
25/05/2019 15:43:50.860,2167
25/05/2019 15:43:50.864,2119
25/05/2019 15:43:50.868,2203
25/05/2019 15:43:50.872,2211
25/05/2019 15:43:50.876,2159
25/05/2019 15:43:50.880,2079
25/05/2019 15:43:50.884,2163
25/05/2019 15:43:50.888,2207
25/05/2019 15:43:50.892,2159
25/05/2019 15:43:50.896,2099
25/05/2019 15:43:50.900,2159
25/05/2019 15:43:50.904,2215
25/05/2019 15:43:50.908,2167
25/05/2019 15:43:50.912,2095
25/05/2019 15:43:50.916,2147
25/05/2019 15:43:50.920,2215
25/05/2019 15:43:50.924,2179
25/05/2019 15:43:50.928,2127
25/05/2019 15:43:50.932,2127
25/05/2019 15:43:50.936,2219
25/05/2019 15:43:50.940,2195
25/05/2019 15:43:50.944,2151
25/05/2019 15:43:50.948,2131
25/05/2019 15:43:50.952,2231
25/05/2019 15:43:50.956,2211
25/05/2019 15:43:50.960,2159
25/05/2019 15:43:50.964,2111
25/05/2019 15:43:50.968,2215
25/05/2019 15:43:50.972,2207
25/05/2019 15:43:50.976,2151
25/05/2019 15:43:50.980,2079
25/05/2019 15:43:50.984,2163
25/05/2019 15:43:50.988,2211
25/05/2019 15:43:50.992,2183
25/05/2019 15:43:50.996,2119
25/05/2019 15:43:51.000,2187
25/05/2019 15:43:51.004,2239
25/05/2019 15:43:51.008,2183
25/05/2019 15:43:51.012,2107
25/05/2019 15:43:51.016,2143
25/05/2019 15:43:51.020,2199
25/05/2019 15:43:51.024,2151
25/05/2019 15:43:51.028,2087
25/05/2019 15:43:51.032,2111
25/05/2019 15:43:51.036,2227
25/05/2019 15:43:51.040,2211
25/05/2019 15:43:51.044,2147
25/05/2019 15:43:51.048,2131
25/05/2019 15:43:51.052,2239
25/05/2019 15:43:51.056,2223
25/05/2019 15:43:51.060,2179
25/05/2019 15:43:51.064,2139
25/05/2019 15:43:51.068,2239
25/05/2019 15:43:51.072,2251
25/05/2019 15:43:51.076,2199
25/05/2019 15:43:51.080,2127
25/05/2019 15:43:51.084,2215
25/05/2019 15:43:51.088,2243
25/05/2019 15:43:51.092,2183
25/05/2019 15:43:51.096,2103
25/05/2019 15:43:51.100,2175
25/05/2019 15:43:51.104,2219
25/05/2019 15:43:51.108,2175
25/05/2019 15:43:51.112,2095
25/05/2019 15:43:51.116,2151
25/05/2019 15:43:51.120,2223
25/05/2019 15:43:51.124,2175
25/05/2019 15:43:51.128,2115
25/05/2019 15:43:51.132,2143
25/05/2019 15:43:51.136,2215
25/05/2019 15:43:51.140,2163
25/05/2019 15:43:51.144,2079
25/05/2019 15:43:51.148,2079
25/05/2019 15:43:51.152,2163
25/05/2019 15:43:51.156,2155
25/05/2019 15:43:51.160,2123
25/05/2019 15:43:51.164,2095
25/05/2019 15:43:51.168,2219
25/05/2019 15:43:51.172,2235
25/05/2019 15:43:51.176,2203
25/05/2019 15:43:51.180,2151
25/05/2019 15:43:51.184,2239
25/05/2019 15:43:51.188,2251
25/05/2019 15:43:51.192,2211
25/05/2019 15:43:51.196,2151
25/05/2019 15:43:51.200,2227
25/05/2019 15:43:51.204,2259
25/05/2019 15:43:51.208,2207
25/05/2019 15:43:51.212,2127
25/05/2019 15:43:51.216,2175
25/05/2019 15:43:51.220,2235
25/05/2019 15:43:51.224,2195
25/05/2019 15:43:51.228,2119
25/05/2019 15:43:51.232,2147
25/05/2019 15:43:51.236,2227
25/05/2019 15:43:51.240,2199
25/05/2019 15:43:51.244,2123
25/05/2019 15:43:51.248,2115
25/05/2019 15:43:51.252,2211
25/05/2019 15:43:51.256,2203
25/05/2019 15:43:51.260,2167
25/05/2019 15:43:51.264,2127
25/05/2019 15:43:51.268,2223
25/05/2019 15:43:51.272,2211
25/05/2019 15:43:51.276,2155
25/05/2019 15:43:51.280,2107
25/05/2019 15:43:51.284,2207
25/05/2019 15:43:51.288,2219
25/05/2019 15:43:51.292,2167
25/05/2019 15:43:51.296,2099
25/05/2019 15:43:51.300,2191
25/05/2019 15:43:51.304,2235
25/05/2019 15:43:51.308,2183
25/05/2019 15:43:51.312,2103
25/05/2019 15:43:51.316,2163
25/05/2019 15:43:51.320,2227
25/05/2019 15:43:51.324,2183
25/05/2019 15:43:51.328,2107
25/05/2019 15:43:51.332,2143
25/05/2019 15:43:51.336,2207
25/05/2019 15:43:51.340,2179
25/05/2019 15:43:51.344,2119
25/05/2019 15:43:51.348,2123
25/05/2019 15:43:51.352,2203
25/05/2019 15:43:51.356,2167
25/05/2019 15:43:51.360,2115
25/05/2019 15:43:51.364,2107
25/05/2019 15:43:51.368,2207
25/05/2019 15:43:51.372,2207
25/05/2019 15:43:51.376,2159
25/05/2019 15:43:51.380,2115
25/05/2019 15:43:51.384,2223
25/05/2019 15:43:51.388,2231
25/05/2019 15:43:51.392,2167
25/05/2019 15:43:51.396,2095
25/05/2019 15:43:51.400,2179
25/05/2019 15:43:51.404,2219
25/05/2019 15:43:51.408,2175
25/05/2019 15:43:51.412,2099
25/05/2019 15:43:51.416,2159
25/05/2019 15:43:51.420,2207
25/05/2019 15:43:51.424,2163
25/05/2019 15:43:51.428,2087
25/05/2019 15:43:51.432,2135
25/05/2019 15:43:51.436,2207
25/05/2019 15:43:51.440,2175
25/05/2019 15:43:51.444,2111
25/05/2019 15:43:51.448,2127
25/05/2019 15:43:51.452,2223
25/05/2019 15:43:51.456,2207
25/05/2019 15:43:51.460,2135
25/05/2019 15:43:51.464,2115
25/05/2019 15:43:51.468,2211
25/05/2019 15:43:51.472,2195
25/05/2019 15:43:51.476,2139
25/05/2019 15:43:51.480,2095
25/05/2019 15:43:51.484,2203
25/05/2019 15:43:51.488,2223
25/05/2019 15:43:51.492,2175
25/05/2019 15:43:51.496,2115
25/05/2019 15:43:51.500,2199
25/05/2019 15:43:51.504,2223
25/05/2019 15:43:51.508,2183
25/05/2019 15:43:51.512,2215
25/05/2019 15:43:51.516,2331
25/05/2019 15:43:51.520,2355
25/05/2019 15:43:51.524,2275
25/05/2019 15:43:51.528,2167
25/05/2019 15:43:51.532,2191
25/05/2019 15:43:51.536,2231
25/05/2019 15:43:51.540,2155
25/05/2019 15:43:51.544,2075
25/05/2019 15:43:51.548,2095
25/05/2019 15:43:51.552,2187
25/05/2019 15:43:51.556,2163
25/05/2019 15:43:51.560,2103
25/05/2019 15:43:51.564,2091
25/05/2019 15:43:51.568,2191
25/05/2019 15:43:51.572,2183
25/05/2019 15:43:51.576,2123
25/05/2019 15:43:51.580,2055
25/05/2019 15:43:51.584,2099
25/05/2019 15:43:51.588,2027
25/05/2019 15:43:51.592,1899
25/05/2019 15:43:51.596,1807
25/05/2019 15:43:51.600,1887
25/05/2019 15:43:51.604,1935
25/05/2019 15:43:51.608,2011
25/05/2019 15:43:51.612,2187
25/05/2019 15:43:51.616,2571
25/05/2019 15:43:51.620,2795
25/05/2019 15:43:51.624,2655
25/05/2019 15:43:51.628,2395
25/05/2019 15:43:51.632,2315
25/05/2019 15:43:51.636,2283
25/05/2019 15:43:51.640,2191
25/05/2019 15:43:51.644,2083
25/05/2019 15:43:51.648,2099
25/05/2019 15:43:51.652,2183
25/05/2019 15:43:51.656,2155
25/05/2019 15:43:51.660,2099
25/05/2019 15:43:51.664,2095
25/05/2019 15:43:51.668,2183
25/05/2019 15:43:51.672,2155
25/05/2019 15:43:51.676,2087
25/05/2019 15:43:51.680,2047
25/05/2019 15:43:51.684,2155
25/05/2019 15:43:51.688,2155
25/05/2019 15:43:51.692,2099
25/05/2019 15:43:51.696,2035
25/05/2019 15:43:51.700,2147
25/05/2019 15:43:51.704,2179
25/05/2019 15:43:51.708,2155
25/05/2019 15:43:51.712,2123
25/05/2019 15:43:51.716,2255
25/05/2019 15:43:51.720,2339
25/05/2019 15:43:51.724,2315
25/05/2019 15:43:51.728,2219
25/05/2019 15:43:51.732,2251
25/05/2019 15:43:51.736,2251
25/05/2019 15:43:51.740,2175
25/05/2019 15:43:51.744,2095
25/05/2019 15:43:51.748,2131
25/05/2019 15:43:51.752,2215
25/05/2019 15:43:51.756,2191
25/05/2019 15:43:51.760,2147
25/05/2019 15:43:51.764,2195
25/05/2019 15:43:51.768,2343
25/05/2019 15:43:51.772,2315
25/05/2019 15:43:51.776,2219
25/05/2019 15:43:51.780,2151
25/05/2019 15:43:51.784,2215
25/05/2019 15:43:51.788,2167
25/05/2019 15:43:51.792,2075
25/05/2019 15:43:51.796,2003
25/05/2019 15:43:51.800,2099
25/05/2019 15:43:51.804,2107
25/05/2019 15:43:51.808,2059
25/05/2019 15:43:51.812,1995
25/05/2019 15:43:51.816,2099
25/05/2019 15:43:51.820,2127
25/05/2019 15:43:51.824,2075
25/05/2019 15:43:51.828,1999
25/05/2019 15:43:51.832,2079
25/05/2019 15:43:51.836,2143
25/05/2019 15:43:51.840,2107
25/05/2019 15:43:51.844,2031
25/05/2019 15:43:51.848,2091
25/05/2019 15:43:51.852,2175
25/05/2019 15:43:51.856,2155
25/05/2019 15:43:51.860,2095
25/05/2019 15:43:51.864,2131
25/05/2019 15:43:51.868,2239
25/05/2019 15:43:51.872,2215
25/05/2019 15:43:51.876,2151
25/05/2019 15:43:51.880,2135
25/05/2019 15:43:51.884,2243
25/05/2019 15:43:51.888,2227
25/05/2019 15:43:51.892,2203
25/05/2019 15:43:51.896,2167
25/05/2019 15:43:51.900,2259
25/05/2019 15:43:51.904,2239
25/05/2019 15:43:51.908,2167
25/05/2019 15:43:51.912,2087
25/05/2019 15:43:51.916,2171
25/05/2019 15:43:51.920,2183
25/05/2019 15:43:51.924,2119
25/05/2019 15:43:51.928,2039
25/05/2019 15:43:51.932,2119
25/05/2019 15:43:51.936,2167
25/05/2019 15:43:51.940,2119
25/05/2019 15:43:51.944,2035
25/05/2019 15:43:51.948,2095
25/05/2019 15:43:51.952,2159
25/05/2019 15:43:51.956,2119
25/05/2019 15:43:51.960,2043
25/05/2019 15:43:51.964,2083
25/05/2019 15:43:51.968,2183
25/05/2019 15:43:51.972,2167
25/05/2019 15:43:51.976,2107
25/05/2019 15:43:51.980,2099
25/05/2019 15:43:51.984,2195
25/05/2019 15:43:51.988,2167
25/05/2019 15:43:51.992,2091
25/05/2019 15:43:51.996,2039
25/05/2019 15:43:52.000,2151
25/05/2019 15:43:52.004,2147
25/05/2019 15:43:52.008,2095
25/05/2019 15:43:52.012,2047
25/05/2019 15:43:52.016,2167
25/05/2019 15:43:52.020,2199
25/05/2019 15:43:52.024,2147
25/05/2019 15:43:52.028,2075
25/05/2019 15:43:52.032,2163
25/05/2019 15:43:52.036,2203
25/05/2019 15:43:52.040,2139
25/05/2019 15:43:52.044,2043
25/05/2019 15:43:52.048,2107
25/05/2019 15:43:52.052,2183
25/05/2019 15:43:52.056,2147
25/05/2019 15:43:52.060,2079
25/05/2019 15:43:52.064,2131
25/05/2019 15:43:52.068,2223
25/05/2019 15:43:52.072,2191
25/05/2019 15:43:52.076,2111
25/05/2019 15:43:52.080,2103
25/05/2019 15:43:52.084,2199
25/05/2019 15:43:52.088,2171
25/05/2019 15:43:52.092,2091
25/05/2019 15:43:52.096,2055
25/05/2019 15:43:52.100,2171
25/05/2019 15:43:52.104,2171
25/05/2019 15:43:52.108,2115
25/05/2019 15:43:52.112,2059
25/05/2019 15:43:52.116,2175
25/05/2019 15:43:52.120,2203
25/05/2019 15:43:52.124,2159
25/05/2019 15:43:52.128,2099
25/05/2019 15:43:52.132,2203
25/05/2019 15:43:52.136,2231
25/05/2019 15:43:52.140,2171
25/05/2019 15:43:52.144,2083
25/05/2019 15:43:52.148,2167
25/05/2019 15:43:52.152,2239
25/05/2019 15:43:52.156,2171
25/05/2019 15:43:52.160,2071
25/05/2019 15:43:52.164,2111
25/05/2019 15:43:52.168,2203
25/05/2019 15:43:52.172,2171
25/05/2019 15:43:52.176,2099
25/05/2019 15:43:52.180,2103
25/05/2019 15:43:52.184,2195
25/05/2019 15:43:52.188,2167
25/05/2019 15:43:52.192,2103
25/05/2019 15:43:52.196,2079
25/05/2019 15:43:52.200,2191
25/05/2019 15:43:52.204,2183
25/05/2019 15:43:52.208,2123
25/05/2019 15:43:52.212,2071
25/05/2019 15:43:52.216,2175
25/05/2019 15:43:52.220,2187
25/05/2019 15:43:52.224,2127
25/05/2019 15:43:52.228,2059
25/05/2019 15:43:52.232,2163
25/05/2019 15:43:52.236,2203
25/05/2019 15:43:52.240,2151
25/05/2019 15:43:52.244,2075
25/05/2019 15:43:52.248,2163
25/05/2019 15:43:52.252,2215
25/05/2019 15:43:52.256,2171
25/05/2019 15:43:52.260,2091
25/05/2019 15:43:52.264,2139
25/05/2019 15:43:52.268,2211
25/05/2019 15:43:52.272,2167
25/05/2019 15:43:52.276,2087
25/05/2019 15:43:52.280,2111
25/05/2019 15:43:52.284,2207
25/05/2019 15:43:52.288,2171
25/05/2019 15:43:52.292,2099
25/05/2019 15:43:52.296,2079
25/05/2019 15:43:52.300,2191
25/05/2019 15:43:52.304,2179
25/05/2019 15:43:52.308,2123
25/05/2019 15:43:52.312,2087
25/05/2019 15:43:52.316,2207
25/05/2019 15:43:52.320,2203
25/05/2019 15:43:52.324,2143
25/05/2019 15:43:52.328,2083
25/05/2019 15:43:52.332,2191
25/05/2019 15:43:52.336,2215
25/05/2019 15:43:52.340,2163
25/05/2019 15:43:52.344,2083
25/05/2019 15:43:52.348,2171
25/05/2019 15:43:52.352,2231
25/05/2019 15:43:52.356,2175
25/05/2019 15:43:52.360,2083
25/05/2019 15:43:52.364,2127
25/05/2019 15:43:52.368,2167
25/05/2019 15:43:52.372,2095
25/05/2019 15:43:52.376,1987
25/05/2019 15:43:52.380,2011
25/05/2019 15:43:52.384,2099
25/05/2019 15:43:52.388,2071
25/05/2019 15:43:52.392,2011
25/05/2019 15:43:52.396,2011
25/05/2019 15:43:52.400,2139
25/05/2019 15:43:52.404,2143
25/05/2019 15:43:52.408,2123
25/05/2019 15:43:52.412,2127
25/05/2019 15:43:52.416,2251
25/05/2019 15:43:52.420,2235
25/05/2019 15:43:52.424,2151
25/05/2019 15:43:52.428,2083
25/05/2019 15:43:52.432,2187
25/05/2019 15:43:52.436,2199
25/05/2019 15:43:52.440,2143
25/05/2019 15:43:52.444,2075
25/05/2019 15:43:52.448,2167
25/05/2019 15:43:52.452,2203
25/05/2019 15:43:52.456,2159
25/05/2019 15:43:52.460,2091
25/05/2019 15:43:52.464,2159
25/05/2019 15:43:52.468,2219
25/05/2019 15:43:52.472,2171
25/05/2019 15:43:52.476,2087
25/05/2019 15:43:52.480,2127
25/05/2019 15:43:52.484,2211
25/05/2019 15:43:52.488,2179
25/05/2019 15:43:52.492,2107
25/05/2019 15:43:52.496,2107
25/05/2019 15:43:52.500,2211
25/05/2019 15:43:52.504,2183
25/05/2019 15:43:52.508,2111
25/05/2019 15:43:52.512,2087
25/05/2019 15:43:52.516,2199
25/05/2019 15:43:52.520,2187
25/05/2019 15:43:52.524,2127
25/05/2019 15:43:52.528,2067
25/05/2019 15:43:52.532,2171
25/05/2019 15:43:52.536,2187
25/05/2019 15:43:52.540,2147
25/05/2019 15:43:52.544,2083
25/05/2019 15:43:52.548,2179
25/05/2019 15:43:52.552,2211
25/05/2019 15:43:52.556,2159
25/05/2019 15:43:52.560,2075
25/05/2019 15:43:52.564,2147
25/05/2019 15:43:52.568,2203
25/05/2019 15:43:52.572,2163
25/05/2019 15:43:52.576,2079
25/05/2019 15:43:52.580,2127
25/05/2019 15:43:52.584,2207
25/05/2019 15:43:52.588,2171
25/05/2019 15:43:52.592,2095
25/05/2019 15:43:52.596,2115
25/05/2019 15:43:52.600,2211
25/05/2019 15:43:52.604,2183
25/05/2019 15:43:52.608,2111
25/05/2019 15:43:52.612,2091
25/05/2019 15:43:52.616,2207
25/05/2019 15:43:52.620,2195
25/05/2019 15:43:52.624,2139
25/05/2019 15:43:52.628,2095
25/05/2019 15:43:52.632,2223
25/05/2019 15:43:52.636,2231
25/05/2019 15:43:52.640,2123
25/05/2019 15:43:52.644,1975
25/05/2019 15:43:52.648,1971
25/05/2019 15:43:52.652,1927
25/05/2019 15:43:52.656,1839
25/05/2019 15:43:52.660,1747
25/05/2019 15:43:52.664,1899
25/05/2019 15:43:52.668,2127
25/05/2019 15:43:52.672,2383
25/05/2019 15:43:52.676,2591
25/05/2019 15:43:52.680,2683
25/05/2019 15:43:52.684,2591
25/05/2019 15:43:52.688,2399
25/05/2019 15:43:52.692,2227
25/05/2019 15:43:52.696,2187
25/05/2019 15:43:52.700,2239
25/05/2019 15:43:52.704,2179
25/05/2019 15:43:52.708,2091
25/05/2019 15:43:52.712,2079
25/05/2019 15:43:52.716,2191
25/05/2019 15:43:52.720,2171
25/05/2019 15:43:52.724,2123
25/05/2019 15:43:52.728,2099
25/05/2019 15:43:52.732,2227
25/05/2019 15:43:52.736,2235
25/05/2019 15:43:52.740,2159
25/05/2019 15:43:52.744,2067
25/05/2019 15:43:52.748,2183
25/05/2019 15:43:52.752,2219
25/05/2019 15:43:52.756,2151
25/05/2019 15:43:52.760,2039
25/05/2019 15:43:52.764,2127
25/05/2019 15:43:52.768,2203
25/05/2019 15:43:52.772,2195
25/05/2019 15:43:52.776,2151
25/05/2019 15:43:52.780,2255
25/05/2019 15:43:52.784,2351
25/05/2019 15:43:52.788,2331
25/05/2019 15:43:52.792,2283
25/05/2019 15:43:52.796,2279
25/05/2019 15:43:52.800,2299
25/05/2019 15:43:52.804,2199
25/05/2019 15:43:52.808,2087
25/05/2019 15:43:52.812,2047
25/05/2019 15:43:52.816,2115
25/05/2019 15:43:52.820,2099
25/05/2019 15:43:52.824,2047
25/05/2019 15:43:52.828,2007
25/05/2019 15:43:52.832,2115
25/05/2019 15:43:52.836,2103
25/05/2019 15:43:52.840,2011
25/05/2019 15:43:52.844,1919
25/05/2019 15:43:52.848,2019
25/05/2019 15:43:52.852,2039
25/05/2019 15:43:52.856,2003
25/05/2019 15:43:52.860,1955
25/05/2019 15:43:52.864,2083
25/05/2019 15:43:52.868,2151
25/05/2019 15:43:52.872,2119
25/05/2019 15:43:52.876,2043
25/05/2019 15:43:52.880,2127
25/05/2019 15:43:52.884,2211
25/05/2019 15:43:52.888,2171
25/05/2019 15:43:52.892,2099
25/05/2019 15:43:52.896,2155
25/05/2019 15:43:52.900,2323
25/05/2019 15:43:52.904,2323
25/05/2019 15:43:52.908,2231
25/05/2019 15:43:52.912,2195
25/05/2019 15:43:52.916,2271
25/05/2019 15:43:52.920,2223
25/05/2019 15:43:52.924,2119
25/05/2019 15:43:52.928,2071
25/05/2019 15:43:52.932,2163
25/05/2019 15:43:52.936,2143
25/05/2019 15:43:52.940,2075
25/05/2019 15:43:52.944,2015
25/05/2019 15:43:52.948,2131
25/05/2019 15:43:52.952,2115
25/05/2019 15:43:52.956,2047
25/05/2019 15:43:52.960,1983
25/05/2019 15:43:52.964,2103
25/05/2019 15:43:52.968,2147
25/05/2019 15:43:52.972,2103
25/05/2019 15:43:52.976,2031
25/05/2019 15:43:52.980,2127
25/05/2019 15:43:52.984,2267
25/05/2019 15:43:52.988,2247
25/05/2019 15:43:52.992,2139
25/05/2019 15:43:52.996,2151
25/05/2019 15:43:53.000,2187
25/05/2019 15:43:53.004,2119
25/05/2019 15:43:53.008,2023
25/05/2019 15:43:53.012,2027
25/05/2019 15:43:53.016,2131
25/05/2019 15:43:53.020,2107
25/05/2019 15:43:53.024,2055
25/05/2019 15:43:53.028,2051
25/05/2019 15:43:53.032,2167
25/05/2019 15:43:53.036,2159
25/05/2019 15:43:53.040,2091
25/05/2019 15:43:53.044,2031
25/05/2019 15:43:53.048,2131
25/05/2019 15:43:53.052,2115
25/05/2019 15:43:53.056,2047
25/05/2019 15:43:53.060,1975
25/05/2019 15:43:53.064,2087
25/05/2019 15:43:53.068,2131
25/05/2019 15:43:53.072,2091
25/05/2019 15:43:53.076,2019
25/05/2019 15:43:53.080,2119
25/05/2019 15:43:53.084,2175
25/05/2019 15:43:53.088,2127
25/05/2019 15:43:53.092,2027
25/05/2019 15:43:53.096,2083
25/05/2019 15:43:53.100,2167
25/05/2019 15:43:53.104,2135
25/05/2019 15:43:53.108,2063
25/05/2019 15:43:53.112,2091
25/05/2019 15:43:53.116,2199
25/05/2019 15:43:53.120,2171
25/05/2019 15:43:53.124,2099
25/05/2019 15:43:53.128,2079
25/05/2019 15:43:53.132,2183
25/05/2019 15:43:53.136,2159
25/05/2019 15:43:53.140,2099
25/05/2019 15:43:53.144,2059
25/05/2019 15:43:53.148,2171
25/05/2019 15:43:53.152,2167
25/05/2019 15:43:53.156,2111
25/05/2019 15:43:53.160,2047
25/05/2019 15:43:53.164,2163
25/05/2019 15:43:53.168,2195
25/05/2019 15:43:53.172,2143
25/05/2019 15:43:53.176,2063
25/05/2019 15:43:53.180,2155
25/05/2019 15:43:53.184,2199
25/05/2019 15:43:53.188,2147
25/05/2019 15:43:53.192,2055
25/05/2019 15:43:53.196,2127
25/05/2019 15:43:53.200,2199
25/05/2019 15:43:53.204,2151
25/05/2019 15:43:53.208,2071
25/05/2019 15:43:53.212,2103
25/05/2019 15:43:53.216,2199
25/05/2019 15:43:53.220,2171
25/05/2019 15:43:53.224,2087
25/05/2019 15:43:53.228,2079
25/05/2019 15:43:53.232,2191
25/05/2019 15:43:53.236,2163
25/05/2019 15:43:53.240,2087
25/05/2019 15:43:53.244,2055
25/05/2019 15:43:53.248,2187
25/05/2019 15:43:53.252,2187
25/05/2019 15:43:53.256,2119
25/05/2019 15:43:53.260,2047
25/05/2019 15:43:53.264,2159
25/05/2019 15:43:53.268,2167
25/05/2019 15:43:53.272,2115
25/05/2019 15:43:53.276,2035
25/05/2019 15:43:53.280,2143
25/05/2019 15:43:53.284,2183
25/05/2019 15:43:53.288,2139
25/05/2019 15:43:53.292,2055
25/05/2019 15:43:53.296,2127
25/05/2019 15:43:53.300,2203
25/05/2019 15:43:53.304,2147
25/05/2019 15:43:53.308,2063
25/05/2019 15:43:53.312,2075
25/05/2019 15:43:53.316,2143
25/05/2019 15:43:53.320,2111
25/05/2019 15:43:53.324,2047
25/05/2019 15:43:53.328,2063
25/05/2019 15:43:53.332,2179
25/05/2019 15:43:53.336,2159
25/05/2019 15:43:53.340,2091
25/05/2019 15:43:53.344,2063
25/05/2019 15:43:53.348,2183
25/05/2019 15:43:53.352,2175
25/05/2019 15:43:53.356,2107
25/05/2019 15:43:53.360,2007
25/05/2019 15:43:53.364,1947
25/05/2019 15:43:53.368,1907
25/05/2019 15:43:53.372,1875
25/05/2019 15:43:53.376,1819
25/05/2019 15:43:53.380,1959
25/05/2019 15:43:53.384,2039
25/05/2019 15:43:53.388,2055
25/05/2019 15:43:53.392,2027
25/05/2019 15:43:53.396,2139
25/05/2019 15:43:53.400,2203
25/05/2019 15:43:53.404,2175
25/05/2019 15:43:53.408,2111
25/05/2019 15:43:53.412,2163
25/05/2019 15:43:53.416,2235
25/05/2019 15:43:53.420,2187
25/05/2019 15:43:53.424,2095
25/05/2019 15:43:53.428,2107
25/05/2019 15:43:53.432,2215
25/05/2019 15:43:53.436,2175
25/05/2019 15:43:53.440,2099
25/05/2019 15:43:53.444,2083
25/05/2019 15:43:53.448,2199
25/05/2019 15:43:53.452,2191
25/05/2019 15:43:53.456,2123
25/05/2019 15:43:53.460,2055
25/05/2019 15:43:53.464,2123
25/05/2019 15:43:53.468,2123
25/05/2019 15:43:53.472,2059
25/05/2019 15:43:53.476,1963
25/05/2019 15:43:53.480,2079
25/05/2019 15:43:53.484,2123
25/05/2019 15:43:53.488,2083
25/05/2019 15:43:53.492,2027
25/05/2019 15:43:53.496,2143
25/05/2019 15:43:53.500,2191
25/05/2019 15:43:53.504,2135
25/05/2019 15:43:53.508,2079
25/05/2019 15:43:53.512,2143
25/05/2019 15:43:53.516,2211
25/05/2019 15:43:53.520,2187
25/05/2019 15:43:53.524,2107
25/05/2019 15:43:53.528,2107
25/05/2019 15:43:53.532,2115
25/05/2019 15:43:53.536,1991
25/05/2019 15:43:53.540,1915
25/05/2019 15:43:53.544,1963
25/05/2019 15:43:53.548,2155
25/05/2019 15:43:53.552,2107
25/05/2019 15:43:53.556,1963
25/05/2019 15:43:53.560,1935
25/05/2019 15:43:53.564,2103
25/05/2019 15:43:53.568,2159
25/05/2019 15:43:53.572,2147
25/05/2019 15:43:53.576,1983
25/05/2019 15:43:53.580,1939
25/05/2019 15:43:53.584,1963
25/05/2019 15:43:53.588,1995
25/05/2019 15:43:53.592,2007
25/05/2019 15:43:53.596,2171
25/05/2019 15:43:53.600,2271
25/05/2019 15:43:53.604,2259
25/05/2019 15:43:53.608,2187
25/05/2019 15:43:53.612,2263
25/05/2019 15:43:53.616,2343
25/05/2019 15:43:53.620,2303
25/05/2019 15:43:53.624,2215
25/05/2019 15:43:53.628,2227
25/05/2019 15:43:53.632,2319
25/05/2019 15:43:53.636,2267
25/05/2019 15:43:53.640,2187
25/05/2019 15:43:53.644,2167
25/05/2019 15:43:53.648,2263
25/05/2019 15:43:53.652,2235
25/05/2019 15:43:53.656,2171
25/05/2019 15:43:53.660,2131
25/05/2019 15:43:53.664,2239
25/05/2019 15:43:53.668,2223
25/05/2019 15:43:53.672,2155
25/05/2019 15:43:53.676,2099
25/05/2019 15:43:53.680,2203
25/05/2019 15:43:53.684,2215
25/05/2019 15:43:53.688,2123
25/05/2019 15:43:53.692,2015
25/05/2019 15:43:53.696,2095
25/05/2019 15:43:53.700,2151
25/05/2019 15:43:53.704,2119
25/05/2019 15:43:53.708,2027
25/05/2019 15:43:53.712,2059
25/05/2019 15:43:53.716,2023
25/05/2019 15:43:53.720,1879
25/05/2019 15:43:53.724,1771
25/05/2019 15:43:53.728,1795
25/05/2019 15:43:53.732,1903
25/05/2019 15:43:53.736,2019
25/05/2019 15:43:53.740,2223
25/05/2019 15:43:53.744,2543
25/05/2019 15:43:53.748,2799
25/05/2019 15:43:53.752,2659
25/05/2019 15:43:53.756,2407
25/05/2019 15:43:53.760,2243
25/05/2019 15:43:53.764,2251
25/05/2019 15:43:53.768,2191
25/05/2019 15:43:53.772,2091
25/05/2019 15:43:53.776,2019
25/05/2019 15:43:53.780,2115
25/05/2019 15:43:53.784,2139
25/05/2019 15:43:53.788,2099
25/05/2019 15:43:53.792,2031
25/05/2019 15:43:53.796,2107
25/05/2019 15:43:53.800,2131
25/05/2019 15:43:53.804,2083
25/05/2019 15:43:53.808,2003
25/05/2019 15:43:53.812,2075
25/05/2019 15:43:53.816,2123
25/05/2019 15:43:53.820,2083
25/05/2019 15:43:53.824,2019
25/05/2019 15:43:53.828,2087
25/05/2019 15:43:53.832,2175
25/05/2019 15:43:53.836,2151
25/05/2019 15:43:53.840,2067
25/05/2019 15:43:53.844,2051
25/05/2019 15:43:53.848,2143
25/05/2019 15:43:53.852,2123
25/05/2019 15:43:53.856,2055
25/05/2019 15:43:53.860,2031
25/05/2019 15:43:53.864,2139
25/05/2019 15:43:53.868,2115
25/05/2019 15:43:53.872,2055
25/05/2019 15:43:53.876,2011
25/05/2019 15:43:53.880,2123
25/05/2019 15:43:53.884,2135
25/05/2019 15:43:53.888,2083
25/05/2019 15:43:53.892,2019
25/05/2019 15:43:53.896,2119
25/05/2019 15:43:53.900,2159
25/05/2019 15:43:53.904,2123
25/05/2019 15:43:53.908,2063
25/05/2019 15:43:53.912,2215
25/05/2019 15:43:53.916,2295
25/05/2019 15:43:53.920,2243
25/05/2019 15:43:53.924,2143
25/05/2019 15:43:53.928,2171
25/05/2019 15:43:53.932,2211
25/05/2019 15:43:53.936,2155
25/05/2019 15:43:53.940,2059
25/05/2019 15:43:53.944,2047
25/05/2019 15:43:53.948,2127
25/05/2019 15:43:53.952,2091
25/05/2019 15:43:53.956,1999
25/05/2019 15:43:53.960,1975
25/05/2019 15:43:53.964,2095
25/05/2019 15:43:53.968,2099
25/05/2019 15:43:53.972,2071
25/05/2019 15:43:53.976,2063
25/05/2019 15:43:53.980,2183
25/05/2019 15:43:53.984,2187
25/05/2019 15:43:53.988,2131
25/05/2019 15:43:53.992,2055
25/05/2019 15:43:53.996,2143
25/05/2019 15:43:54.000,2167
25/05/2019 15:43:54.004,2135
25/05/2019 15:43:54.008,2079
25/05/2019 15:43:54.012,2171
25/05/2019 15:43:54.016,2211
25/05/2019 15:43:54.020,2171
25/05/2019 15:43:54.024,2095
25/05/2019 15:43:54.028,2163
25/05/2019 15:43:54.032,2223
25/05/2019 15:43:54.036,2191
25/05/2019 15:43:54.040,2123
25/05/2019 15:43:54.044,2143
25/05/2019 15:43:54.048,2207
25/05/2019 15:43:54.052,2167
25/05/2019 15:43:54.056,2087
25/05/2019 15:43:54.060,2083
25/05/2019 15:43:54.064,2171
25/05/2019 15:43:54.068,2147
25/05/2019 15:43:54.072,2091
25/05/2019 15:43:54.076,2063
25/05/2019 15:43:54.080,2143
25/05/2019 15:43:54.084,2131
25/05/2019 15:43:54.088,2087
25/05/2019 15:43:54.092,2039
25/05/2019 15:43:54.096,2151
25/05/2019 15:43:54.100,2175
25/05/2019 15:43:54.104,2139
25/05/2019 15:43:54.108,2071
25/05/2019 15:43:54.112,2147
25/05/2019 15:43:54.116,2183
25/05/2019 15:43:54.120,2127
25/05/2019 15:43:54.124,2047
25/05/2019 15:43:54.128,2127
25/05/2019 15:43:54.132,2183
25/05/2019 15:43:54.136,2127
25/05/2019 15:43:54.140,2043
25/05/2019 15:43:54.144,2087
25/05/2019 15:43:54.148,2175
25/05/2019 15:43:54.152,2151
25/05/2019 15:43:54.156,2079
25/05/2019 15:43:54.160,2087
25/05/2019 15:43:54.164,2179
25/05/2019 15:43:54.168,2143
25/05/2019 15:43:54.172,2083
25/05/2019 15:43:54.176,2071
25/05/2019 15:43:54.180,2171
25/05/2019 15:43:54.184,2163
25/05/2019 15:43:54.188,2111
25/05/2019 15:43:54.192,2067
25/05/2019 15:43:54.196,2167
25/05/2019 15:43:54.200,2167
25/05/2019 15:43:54.204,2119
25/05/2019 15:43:54.208,2059
25/05/2019 15:43:54.212,2151
25/05/2019 15:43:54.216,2183
25/05/2019 15:43:54.220,2127
25/05/2019 15:43:54.224,2055
25/05/2019 15:43:54.228,2139
25/05/2019 15:43:54.232,2199
25/05/2019 15:43:54.236,2159
25/05/2019 15:43:54.240,2087
25/05/2019 15:43:54.244,2127
25/05/2019 15:43:54.248,2191
25/05/2019 15:43:54.252,2143
25/05/2019 15:43:54.256,2067
25/05/2019 15:43:54.260,2083
25/05/2019 15:43:54.264,2171
25/05/2019 15:43:54.268,2143
25/05/2019 15:43:54.272,2075
25/05/2019 15:43:54.276,2055
25/05/2019 15:43:54.280,2163
25/05/2019 15:43:54.284,2143
25/05/2019 15:43:54.288,2075
25/05/2019 15:43:54.292,2023
25/05/2019 15:43:54.296,2147
25/05/2019 15:43:54.300,2151
25/05/2019 15:43:54.304,2099
25/05/2019 15:43:54.308,2027
25/05/2019 15:43:54.312,2155
25/05/2019 15:43:54.316,2187
25/05/2019 15:43:54.320,2127
25/05/2019 15:43:54.324,2035
25/05/2019 15:43:54.328,2143
25/05/2019 15:43:54.332,2207
25/05/2019 15:43:54.336,2151
25/05/2019 15:43:54.340,2063
25/05/2019 15:43:54.344,2135
25/05/2019 15:43:54.348,2211
25/05/2019 15:43:54.352,2155
25/05/2019 15:43:54.356,2059
25/05/2019 15:43:54.360,2095
25/05/2019 15:43:54.364,2211
25/05/2019 15:43:54.368,2167
25/05/2019 15:43:54.372,2075
25/05/2019 15:43:54.376,2055
25/05/2019 15:43:54.380,2195
25/05/2019 15:43:54.384,2171
25/05/2019 15:43:54.388,2099
25/05/2019 15:43:54.392,2059
25/05/2019 15:43:54.396,2223
25/05/2019 15:43:54.400,2219
25/05/2019 15:43:54.404,2171
25/05/2019 15:43:54.408,2111
25/05/2019 15:43:54.412,2239
25/05/2019 15:43:54.416,2231
25/05/2019 15:43:54.420,2127
25/05/2019 15:43:54.424,2007
25/05/2019 15:43:54.428,2123
25/05/2019 15:43:54.432,2175
25/05/2019 15:43:54.436,2107
25/05/2019 15:43:54.440,1999
25/05/2019 15:43:54.444,2071
25/05/2019 15:43:54.448,2143
25/05/2019 15:43:54.452,2095
25/05/2019 15:43:54.456,2011
25/05/2019 15:43:54.460,2047
25/05/2019 15:43:54.464,2147
25/05/2019 15:43:54.468,2107
25/05/2019 15:43:54.472,2023
25/05/2019 15:43:54.476,2023
25/05/2019 15:43:54.480,2139
25/05/2019 15:43:54.484,2123
25/05/2019 15:43:54.488,2063
25/05/2019 15:43:54.492,2043
25/05/2019 15:43:54.496,2159
25/05/2019 15:43:54.500,2147
25/05/2019 15:43:54.504,2075
25/05/2019 15:43:54.508,2019
25/05/2019 15:43:54.512,2139
25/05/2019 15:43:54.516,2143
25/05/2019 15:43:54.520,2083
25/05/2019 15:43:54.524,2007
25/05/2019 15:43:54.528,2107
25/05/2019 15:43:54.532,2159
25/05/2019 15:43:54.536,2111
25/05/2019 15:43:54.540,2023
25/05/2019 15:43:54.544,2095
25/05/2019 15:43:54.548,2163
25/05/2019 15:43:54.552,2119
25/05/2019 15:43:54.556,2051
25/05/2019 15:43:54.560,2115
25/05/2019 15:43:54.564,2203
25/05/2019 15:43:54.568,2159
25/05/2019 15:43:54.572,2075
25/05/2019 15:43:54.576,2079
25/05/2019 15:43:54.580,2175
25/05/2019 15:43:54.584,2143
25/05/2019 15:43:54.588,2071
25/05/2019 15:43:54.592,2043
25/05/2019 15:43:54.596,2155
25/05/2019 15:43:54.600,2139
25/05/2019 15:43:54.604,2067
25/05/2019 15:43:54.608,2011
25/05/2019 15:43:54.612,2123
25/05/2019 15:43:54.616,2139
25/05/2019 15:43:54.620,2099
25/05/2019 15:43:54.624,2043
25/05/2019 15:43:54.628,2159
25/05/2019 15:43:54.632,2191
25/05/2019 15:43:54.636,2135
25/05/2019 15:43:54.640,2047
25/05/2019 15:43:54.644,2155
25/05/2019 15:43:54.648,2239
25/05/2019 15:43:54.652,2191
25/05/2019 15:43:54.656,2099
25/05/2019 15:43:54.660,2151
25/05/2019 15:43:54.664,2231
25/05/2019 15:43:54.668,2199
25/05/2019 15:43:54.672,2143
25/05/2019 15:43:54.676,2175
25/05/2019 15:43:54.680,2259
25/05/2019 15:43:54.684,2199
25/05/2019 15:43:54.688,2099
25/05/2019 15:43:54.692,2067
25/05/2019 15:43:54.696,2151
25/05/2019 15:43:54.700,2127
25/05/2019 15:43:54.704,2071
25/05/2019 15:43:54.708,2027
25/05/2019 15:43:54.712,2147
25/05/2019 15:43:54.716,2147
25/05/2019 15:43:54.720,2079
25/05/2019 15:43:54.724,1995
25/05/2019 15:43:54.728,2095
25/05/2019 15:43:54.732,2135
25/05/2019 15:43:54.736,2091
25/05/2019 15:43:54.740,1979
25/05/2019 15:43:54.744,1987
25/05/2019 15:43:54.748,1939
25/05/2019 15:43:54.752,1811
25/05/2019 15:43:54.756,1699
25/05/2019 15:43:54.760,1723
25/05/2019 15:43:54.764,1843
25/05/2019 15:43:54.768,1959
25/05/2019 15:43:54.772,2183
25/05/2019 15:43:54.776,2527
25/05/2019 15:43:54.780,2715
25/05/2019 15:43:54.784,2543
25/05/2019 15:43:54.788,2279
25/05/2019 15:43:54.792,2139
25/05/2019 15:43:54.796,2171
25/05/2019 15:43:54.800,2119
25/05/2019 15:43:54.804,2035
25/05/2019 15:43:54.808,1987
25/05/2019 15:43:54.812,2111
25/05/2019 15:43:54.816,2119
25/05/2019 15:43:54.820,2067
25/05/2019 15:43:54.824,2015
25/05/2019 15:43:54.828,2119
25/05/2019 15:43:54.832,2127
25/05/2019 15:43:54.836,2079
25/05/2019 15:43:54.840,2015
25/05/2019 15:43:54.844,2099
25/05/2019 15:43:54.848,2135
25/05/2019 15:43:54.852,2091
25/05/2019 15:43:54.856,2011
25/05/2019 15:43:54.860,2067
25/05/2019 15:43:54.864,2135
25/05/2019 15:43:54.868,2111
25/05/2019 15:43:54.872,2055
25/05/2019 15:43:54.876,2111
25/05/2019 15:43:54.880,2207
25/05/2019 15:43:54.884,2163
25/05/2019 15:43:54.888,2087
25/05/2019 15:43:54.892,2087
25/05/2019 15:43:54.896,2171
25/05/2019 15:43:54.900,2155
25/05/2019 15:43:54.904,2099
25/05/2019 15:43:54.908,2055
25/05/2019 15:43:54.912,2159
25/05/2019 15:43:54.916,2155
25/05/2019 15:43:54.920,2123
25/05/2019 15:43:54.924,2087
25/05/2019 15:43:54.928,2195
25/05/2019 15:43:54.932,2203
25/05/2019 15:43:54.936,2131
25/05/2019 15:43:54.940,2043
25/05/2019 15:43:54.944,2111
25/05/2019 15:43:54.948,2123
25/05/2019 15:43:54.952,2059
25/05/2019 15:43:54.956,1971
25/05/2019 15:43:54.960,2027
25/05/2019 15:43:54.964,2083
25/05/2019 15:43:54.968,2059
25/05/2019 15:43:54.972,1999
25/05/2019 15:43:54.976,2051
25/05/2019 15:43:54.980,2135
25/05/2019 15:43:54.984,2107
25/05/2019 15:43:54.988,2039
25/05/2019 15:43:54.992,1999
25/05/2019 15:43:54.996,2015
25/05/2019 15:43:55.000,2055
25/05/2019 15:43:55.004,2027
25/05/2019 15:43:55.008,1899
25/05/2019 15:43:55.012,1979
25/05/2019 15:43:55.016,2015
25/05/2019 15:43:55.020,2007
25/05/2019 15:43:55.024,2003
25/05/2019 15:43:55.028,2131
25/05/2019 15:43:55.032,2171
25/05/2019 15:43:55.036,2143
25/05/2019 15:43:55.040,2143
25/05/2019 15:43:55.044,2335
25/05/2019 15:43:55.048,2395
25/05/2019 15:43:55.052,2351
25/05/2019 15:43:55.056,2259
25/05/2019 15:43:55.060,2283
25/05/2019 15:43:55.064,2295
25/05/2019 15:43:55.068,2219
25/05/2019 15:43:55.072,2111
25/05/2019 15:43:55.076,2131
25/05/2019 15:43:55.080,2175
25/05/2019 15:43:55.084,2135
25/05/2019 15:43:55.088,2063
25/05/2019 15:43:55.092,2075
25/05/2019 15:43:55.096,2159
25/05/2019 15:43:55.100,2219
25/05/2019 15:43:55.104,2203
25/05/2019 15:43:55.108,2183
25/05/2019 15:43:55.112,2251
25/05/2019 15:43:55.116,2211
25/05/2019 15:43:55.120,2155
25/05/2019 15:43:55.124,2107
25/05/2019 15:43:55.128,2179
25/05/2019 15:43:55.132,2163
25/05/2019 15:43:55.136,2115
25/05/2019 15:43:55.140,2047
25/05/2019 15:43:55.144,2119
25/05/2019 15:43:55.148,2127
25/05/2019 15:43:55.152,2067
25/05/2019 15:43:55.156,1967
25/05/2019 15:43:55.160,2027
25/05/2019 15:43:55.164,2083
25/05/2019 15:43:55.168,2063
25/05/2019 15:43:55.172,2047
25/05/2019 15:43:55.176,2115
25/05/2019 15:43:55.180,2183
25/05/2019 15:43:55.184,2139
25/05/2019 15:43:55.188,2063
25/05/2019 15:43:55.192,2071
25/05/2019 15:43:55.196,2139
25/05/2019 15:43:55.200,2103
25/05/2019 15:43:55.204,2031
25/05/2019 15:43:55.208,2015
25/05/2019 15:43:55.212,2119
25/05/2019 15:43:55.216,2135
25/05/2019 15:43:55.220,2087
25/05/2019 15:43:55.224,2071
25/05/2019 15:43:55.228,2187
25/05/2019 15:43:55.232,2203
25/05/2019 15:43:55.236,2159
25/05/2019 15:43:55.240,2091
25/05/2019 15:43:55.244,2167
25/05/2019 15:43:55.248,2175
25/05/2019 15:43:55.252,2111
25/05/2019 15:43:55.256,2039
25/05/2019 15:43:55.260,2119
25/05/2019 15:43:55.264,2171
25/05/2019 15:43:55.268,2127
25/05/2019 15:43:55.272,2083
25/05/2019 15:43:55.276,2303
25/05/2019 15:43:55.280,2427
25/05/2019 15:43:55.284,2343
25/05/2019 15:43:55.288,2195
25/05/2019 15:43:55.292,2143
25/05/2019 15:43:55.296,2171
25/05/2019 15:43:55.300,2127
25/05/2019 15:43:55.304,2055
25/05/2019 15:43:55.308,2039
25/05/2019 15:43:55.312,2115
25/05/2019 15:43:55.316,2067
25/05/2019 15:43:55.320,1987
25/05/2019 15:43:55.324,1947
25/05/2019 15:43:55.328,2047
25/05/2019 15:43:55.332,2059
25/05/2019 15:43:55.336,2007
25/05/2019 15:43:55.340,1959
25/05/2019 15:43:55.344,2059
25/05/2019 15:43:55.348,2103
25/05/2019 15:43:55.352,2083
25/05/2019 15:43:55.356,2023
25/05/2019 15:43:55.360,2123
25/05/2019 15:43:55.364,2175
25/05/2019 15:43:55.368,2127
25/05/2019 15:43:55.372,2039
25/05/2019 15:43:55.376,2075
25/05/2019 15:43:55.380,2123
25/05/2019 15:43:55.384,2095
25/05/2019 15:43:55.388,2071
25/05/2019 15:43:55.392,2115
25/05/2019 15:43:55.396,2167
25/05/2019 15:43:55.400,2115
25/05/2019 15:43:55.404,2031
25/05/2019 15:43:55.408,2019
25/05/2019 15:43:55.412,2099
25/05/2019 15:43:55.416,2083
25/05/2019 15:43:55.420,2027
25/05/2019 15:43:55.424,2011
25/05/2019 15:43:55.428,2111
25/05/2019 15:43:55.432,2107
25/05/2019 15:43:55.436,2059
25/05/2019 15:43:55.440,2003
25/05/2019 15:43:55.444,2091
25/05/2019 15:43:55.448,2111
25/05/2019 15:43:55.452,2087
25/05/2019 15:43:55.456,2043
25/05/2019 15:43:55.460,2143
25/05/2019 15:43:55.464,2183
25/05/2019 15:43:55.468,2163
25/05/2019 15:43:55.472,2087
25/05/2019 15:43:55.476,2131
25/05/2019 15:43:55.480,2167
25/05/2019 15:43:55.484,2111
25/05/2019 15:43:55.488,2019
25/05/2019 15:43:55.492,2043
25/05/2019 15:43:55.496,2107
25/05/2019 15:43:55.500,2079
25/05/2019 15:43:55.504,2007
25/05/2019 15:43:55.508,2015
25/05/2019 15:43:55.512,2107
25/05/2019 15:43:55.516,2087
25/05/2019 15:43:55.520,2023
25/05/2019 15:43:55.524,2007
25/05/2019 15:43:55.528,2111
25/05/2019 15:43:55.532,2115
25/05/2019 15:43:55.536,2055
25/05/2019 15:43:55.540,2011
25/05/2019 15:43:55.544,2111
25/05/2019 15:43:55.548,2115
25/05/2019 15:43:55.552,2063
25/05/2019 15:43:55.556,2003
25/05/2019 15:43:55.560,2103
25/05/2019 15:43:55.564,2135
25/05/2019 15:43:55.568,2091
25/05/2019 15:43:55.572,2015
25/05/2019 15:43:55.576,2095
25/05/2019 15:43:55.580,2159
25/05/2019 15:43:55.584,2123
25/05/2019 15:43:55.588,2043
25/05/2019 15:43:55.592,2083
25/05/2019 15:43:55.596,2143
25/05/2019 15:43:55.600,2091
25/05/2019 15:43:55.604,2019
25/05/2019 15:43:55.608,2043
25/05/2019 15:43:55.612,2139
25/05/2019 15:43:55.616,2127
25/05/2019 15:43:55.620,2075
25/05/2019 15:43:55.624,2067
25/05/2019 15:43:55.628,2167
25/05/2019 15:43:55.632,2147
25/05/2019 15:43:55.636,2087
25/05/2019 15:43:55.640,2043
25/05/2019 15:43:55.644,2143
25/05/2019 15:43:55.648,2147
25/05/2019 15:43:55.652,2091
25/05/2019 15:43:55.656,2027
25/05/2019 15:43:55.660,2127
25/05/2019 15:43:55.664,2151
25/05/2019 15:43:55.668,2103
25/05/2019 15:43:55.672,2039
25/05/2019 15:43:55.676,2131
25/05/2019 15:43:55.680,2195
25/05/2019 15:43:55.684,2163
25/05/2019 15:43:55.688,2083
25/05/2019 15:43:55.692,2135
25/05/2019 15:43:55.696,2191
25/05/2019 15:43:55.700,2143
25/05/2019 15:43:55.704,2055
25/05/2019 15:43:55.708,2083
25/05/2019 15:43:55.712,2143
25/05/2019 15:43:55.716,2087
25/05/2019 15:43:55.720,2003
25/05/2019 15:43:55.724,1991
25/05/2019 15:43:55.728,2095
25/05/2019 15:43:55.732,2091
25/05/2019 15:43:55.736,2039
25/05/2019 15:43:55.740,2011
25/05/2019 15:43:55.744,2131
25/05/2019 15:43:55.748,2135
25/05/2019 15:43:55.752,2075
25/05/2019 15:43:55.756,2011
25/05/2019 15:43:55.760,2107
25/05/2019 15:43:55.764,2099
25/05/2019 15:43:55.768,1995
25/05/2019 15:43:55.772,1895
25/05/2019 15:43:55.776,2007
25/05/2019 15:43:55.780,2099
25/05/2019 15:43:55.784,2075
25/05/2019 15:43:55.788,2003
25/05/2019 15:43:55.792,2063
25/05/2019 15:43:55.796,2127
25/05/2019 15:43:55.800,2095
25/05/2019 15:43:55.804,2015
25/05/2019 15:43:55.808,2047
25/05/2019 15:43:55.812,2135
25/05/2019 15:43:55.816,2111
25/05/2019 15:43:55.820,2039
25/05/2019 15:43:55.824,2039
25/05/2019 15:43:55.828,2131
25/05/2019 15:43:55.832,2107
25/05/2019 15:43:55.836,2039
25/05/2019 15:43:55.840,2011
25/05/2019 15:43:55.844,2119
25/05/2019 15:43:55.848,2139
25/05/2019 15:43:55.852,2107
25/05/2019 15:43:55.856,2051
25/05/2019 15:43:55.860,2107
25/05/2019 15:43:55.864,2067
25/05/2019 15:43:55.868,1935
25/05/2019 15:43:55.872,1823
25/05/2019 15:43:55.876,1871
25/05/2019 15:43:55.880,1899
25/05/2019 15:43:55.884,1963
25/05/2019 15:43:55.888,2139
25/05/2019 15:43:55.892,2535
25/05/2019 15:43:55.896,2799
25/05/2019 15:43:55.900,2671
25/05/2019 15:43:55.904,2359
25/05/2019 15:43:55.908,2215
25/05/2019 15:43:55.912,2191
25/05/2019 15:43:55.916,2083
25/05/2019 15:43:55.920,1983
25/05/2019 15:43:55.924,2011
25/05/2019 15:43:55.928,2039
25/05/2019 15:43:55.932,1971
25/05/2019 15:43:55.936,1927
25/05/2019 15:43:55.940,1971
25/05/2019 15:43:55.944,2103
25/05/2019 15:43:55.948,2103
25/05/2019 15:43:55.952,2059
25/05/2019 15:43:55.956,2023
25/05/2019 15:43:55.960,2127
25/05/2019 15:43:55.964,2143
25/05/2019 15:43:55.968,2091
25/05/2019 15:43:55.972,1983
25/05/2019 15:43:55.976,2067
25/05/2019 15:43:55.980,2091
25/05/2019 15:43:55.984,2067
25/05/2019 15:43:55.988,2063
25/05/2019 15:43:55.992,2159
25/05/2019 15:43:55.996,2211
25/05/2019 15:43:56.000,2159
25/05/2019 15:43:56.004,2075
25/05/2019 15:43:56.008,2123
25/05/2019 15:43:56.012,2187
25/05/2019 15:43:56.016,2139
25/05/2019 15:43:56.020,2047
